x,y,v_x,v_y,omega
2.375,32.48,0.0,2.358974358974359,-3.4693877551020407
2.3744732774233306,32.03609240369016,-0.005544448175469265,2.3137371811291274,-3.300672702327482
2.3729545058829764,31.600651763374433,-0.010442620670362186,2.2698485064048817,-3.1437983936093
2.370559815177302,31.173428282980694,-0.014764649915684581,2.227240760897635,-2.997660593226043
2.3673927942010065,30.75418456106755,-0.018572412992690978,2.1858510487144134,-2.861278519442948
2.3635459573027835,30.34269474321101,-0.0219206069885999,2.145620718196541,-2.733779000707644
2.3591020210533515,29.938743751863896,-0.02485766932121145,2.1064949801941553,-2.614382918632278
2.354135018533927,29.5421265845347,-0.027426567725360902,2.068422570639485,-2.502393570974762
2.3487112739758156,29.15264767247588,-0.02966548025476205,2.031355451032287,-2.3971866527111825
2.3428902570470163,28.77012029318115,-0.031608382153650756,1.9952485415438175,-2.298201605585937
2.3367253331490017,28.39436603091354,-0.03328555361492386,1.9600594823257425,-2.2049341288992044
2.3302644236434245,28.025214280256886,-0.0347240201279947,1.9257484193232566,-2.1169296787946004
2.32355058788496,27.66250178833129,-0.035947935224267,1.8922778114725038,-2.033777811534885
2.316622537221164,27.30607223186076,-0.0369789138683178,1.8596122566383424,-1.955107249443056
2.309515089675568,26.955775825746258,-0.037836323453747454,1.8277183340406364,-1.8805815673164252
2.3022595728096253,26.611468960194397,-0.038537538293015074,1.796564461242089,-1.8098954129637788
2.2948841812248104,26.273013863792496,-0.03909816259977491,1.7661207640410912,-1.7427711886834247
2.287414294287142,25.94027829021385,-0.03953222621778649,1.7363589578393703,-1.6789561314822756
2.279872758907453,25.613135226490883,-0.03985235672630916,1.7072522392445175,-1.6182197390259099
2.272280141570892,25.29146262101397,-0.040069931026963976,1.6787751868282141,-1.5603514960234033
2.264654953261273,24.975143129606042,-0.04019520907428864,1.6509036700973718,-1.5051588622449925
2.257013850455631,24.664063878190888,-0.04023745203773062,1.6236147658516362,-1.4524654888536859
2.249371814959847,24.358116240720967,-0.0402050268652591,1.5968866812001639,-1.4021096343738704
2.241742315007511,24.057195631160326,-0.040105498948804365,1.5706986825960338,-1.3539427555600392
2.2341374497430158,23.76120130843327,-0.03994571436167311,1.5450310303203487,-1.3078282517815203
2.2265680789492057,23.470036193351213,-0.03973187294159229,1.5198649179118573,-1.2636403443989235
2.219043939653895,23.18360669662072,-0.03946959332483799,1.4951824160933413,-1.221263075053087
2.2115783076770037,22.90182451709889,-0.03911600643191127,1.4709457893995956,-1.1786360484957839
2.2041825292748554,22.624604433282258,-0.038734292538071105,1.4471603560386752,-1.1378940532360131
2.1968616155696443,22.35186220475295,-0.03832795699046183,1.4238104705855792,-1.0989319063759142
2.189619944108929,22.083516497885263,-0.03790016364865236,1.400881180653253,-1.0616514028291903
2.1824613205969983,21.81948875786145,-0.03745376805587785,1.3783581880184743,-1.0259607785936875
2.1753890346458182,21.559703087825454,-0.03699134721970186,1.3562278123604212,-0.9917742208430385
2.168405910154624,21.30408613469767,-0.036515226371815056,1.334476957405686,-0.9590114202767442
2.161514350861115,21.052566981211363,-0.036027503033543906,1.3130930792922677,-0.9275971616581957
2.1547163815487194,20.80507704376532,-0.03553006867588535,1.292064156981902,-0.8974609489027054
2.1480136853426797,20.561549975718343,-0.0350246282297924,1.2713786645651959,-0.8685366614599381
2.141407637481877,20.321921575779477,-0.034512717673396066,1.2510255453176173,-0.8407622390735512
2.134899335912658,20.086129701173526,-0.033995719897331515,1.2309941873766295,-0.8140793923008319
2.128489629014857,19.85411418528522,-0.033474879026885326,1.211274400921297,-0.7884333364413953
2.1221791407381123,19.62581675950686,-0.03295131335990337,1.1918563967456646,-0.7637725467606818
2.1159682933980357,19.40118097903403,-0.03242602706195619,1.1727307661262314,-0.7400485331046429
2.1098573283563886,19.180152152372294,-0.03189992074485673,1.1538884618920149,-0.7172156321897196
2.103846324786731,18.962677274334307,-0.03137380104100996,1.135320780613116,-0.6952308160197183
2.097935216706803,18.748704962322172,-0.030848389274025095,1.117019345830428,-0.674053515030823
2.0921238084408125,18.53818539570403,-0.03032432931534611,1.0989760922552554,-0.6536454546998282
2.0864117886586717,18.331070258106827,-0.029802194707189276,1.0811832508731856,-0.6339705044705221
2.0807987431247397,18.12731268245917,-0.02928249512367181,1.063633334891637,-0.6149945379606035
2.075284166275709,17.926867198629324,-0.02876568223454666,1.0463191264751435,-0.5966853035079466
2.0698674717356425,17.729689683513605,-0.028252155029314455,1.0292336642166744,-0.5790123042016739
2.0645480018657683,17.53573731343979,-0.02774226465356774,1.0123702312971583,-0.5619466866214332
2.0593250364372855,17.34496851875911,-0.027236318804150256,0.9957223442889297,-0.5454611375784388
2.0542011327104035,17.15754815720299,-0.02669950989986585,0.9771235668281533,-0.5722710130148866
2.049175892499766,16.973651045645344,-0.026197755475267644,0.9586355021996711,-0.6006292527653025
2.0442427278565205,16.793256424462122,-0.025730293401003513,0.9402552470973903,-0.6304253859795534
2.0393952011849232,16.616344074719134,-0.025296303142124672,0.9219800133551391,-0.6615510448610314
2.0346270358002467,16.44289429664291,-0.02489491143341411,0.9038071242893573,-0.6938997264525468
2.0299321254559928,16.27288788874918,-0.024525197453473396,0.885734011434091,-0.7273665578878745
2.0253045429325667,16.106306127555012,-0.024186197529956047,0.8677582116624203,-0.7618480641253511
2.020738547773737,15.943130747801415,-0.02387690940509414,0.8498773646912078,-0.7972419371726974
2.016228593251935,15.783343923113705,-0.02359629608755992,0.8320892109689175,-0.8334468057974841
2.0117693326388144,15.62692824702648,-0.023343289313709336,0.8143915899492449,-0.8703620046950389
2.0073556248533695,15.473866714299437,-0.023116792638343927,0.7967824387564678,-0.9078873420547209
2.0029825395563603,15.32414270244865,-0.02291568417227497,0.7792597912518188,-0.9459228644258668
1.9986453617567848,15.177739953415912,-0.022738818981152698,0.7618217775138402,-0.9843686177357789
1.9943395959936407,15.034642555295878,-0.02258503115720579,0.7444666237496775,-1.0231244032532043
1.9900609701543002,14.894834924037088,-0.02245313557269384,0.7271926526586504,-1.0620895272210937
1.9858054389894015,14.758301785028458,-0.022341929320977172,0.7099982842742998,-1.101162542801173
1.9815691873833372,14.62502815447733,-0.022250192848121925,0.6928820373165198,-1.140240982879081
1.977348633439155,14.494999320478573,-0.022176690774848767,0.6758425310914432,-1.1792210821714968
1.9731404314370349,14.368200823666445,-0.02212017240536249,0.6588784879835776,-1.2179974869547379
1.9689414747264935,14.244618437331727,-0.02207937191612566,0.641988736592402,-1.256462950596629
1.9647488986141395,14.124238146875882,-0.022053008213916193,0.6251722155743887,-1.2945080129189555
1.9605600833112113,14.007046128461486,-0.022039784448485165,0.6084279782613736,-1.3320206612454872
1.956372657008334,13.893028726703587,-0.022038387160750166,0.5917551981375494,-1.3688859707995986
1.9521844991490105,13.782172431229839,-0.02204748504265723,0.5751531752703266,-1.4049857219054207
1.947993743978401,13.674463851917672,-0.022065727279548357,0.5586213438051293,-1.440197991217354
1.9437987844500437,13.569889692594327,-0.022091741439999868,0.5421592806511439,-1.4743967139556111
1.939598276580446,13.468436722959549,-0.02212413087155561,0.5257667155044233,-1.5074512138626
1.9353911443500695,13.370091748460826,-0.02216147155346024,0.5094435423768723,-1.5392256973207312
1.9311765852593097,13.274841577816662,-0.022202308349275737,0.49318983282485584,-1.5695787077939625
1.9269540766597943,13.182672987843823,-0.02224515059299092,0.47700585109978755,-1.598362536484664
1.9227233829949457,13.093572685199181,-0.022288466931731605,0.46089207147537825,-1.625422584852049
1.9184845640994892,13.007527264594987,-0.02233067933623197,0.44484919804245554,-1.6505966744452112
1.9142379847257733,12.92452316298722,-0.022370156176565244,0.4288781873024405,-1.6737142994023875
1.9099843254857336,12.844546609169715,-0.022405204244907592,0.41298027393444614,-1.694595817016455
1.9057245954215252,12.767583568130952,-0.02243405958886409,0.3971570001577964,-1.7130515720493904
1.901460146445821,12.693619679445757,-0.022454876997496126,0.381410249160038,-1.7288809511178855
1.897192689925165,12.622640188880343,-0.022465717956776647,0.36574228310746126,-1.7418713646455062
1.8929243157175244,12.554629872287009,-0.022464536860494422,0.35015578629604677,-1.75179715583918
1.8886575140194264,12.489572950756234,-0.022449165224746867,0.3346539140279064,-1.7584184392681004
1.884395200430482,12.427452995882643,-0.02241729360624618,0.31924034779937177,-1.7614798764336554
1.88014074470597,12.36825282389416,-0.022366450862301518,0.3039193573425664,-1.7607094029889199
1.8758980037449238,12.311954377302072,-0.02229398030660676,0.28869586994258406,-1.7558169331080382
1.871671359456904,12.258538592672465,-0.022197012198862436,0.27357554721118915,-1.7464930825296492
1.867465762273198,12.207985253126232,-0.022072431840148465,0.2585648690649728,-1.7324079753352175
1.8632867812297607,12.160272824292207,-0.021916842301297788,0.24367122392477608,-1.7132102339435153
1.8591406617691655,12.11537827273774,-0.021726520441809033,0.22890300296435934,-1.6885263019668557
1.8550343927181288,12.073276866492598,-0.02149736430594587,0.2142696943529237,-1.6579603224486934
1.8509757843459476,12.033941958330413,-0.021224829085434528,0.19978197051218183,-1.6210948994579029
1.8469735600790402,11.997344754221444,-0.020903847408325984,0.18545175695064445,-1.5774932227702436
1.8430374654711903,11.963454072177115,-0.02052872741114893,0.17129226456860902,-1.5267032518293175
1.8391783996269746,11.932236101072881,-0.020093018317436342,0.15731795758120268,-1.4682649594860275
1.835408576805985,11.903654175637062,-0.019589327166665428,0.14354441542743862,-1.4017220534730355
1.8317417299835568,11.877668593459383,-0.019009060437842278,0.12998802854811042,-1.3266401422588494
1.82819337465838,11.854236513437655,-0.01834204824822785,0.11666544536479857,-1.242633977258782
1.8247811616950138,11.833311992897812,-0.01757598294510142,0.1035926655809305,-1.1494070780854737
1.8215253648561587,11.81484624135166,-0.01669556272705842,0.09078366648384481,-1.046807404370212
1.818449575633749,11.798788186791661,-0.0156811659298841,0.07824848677930912,-0.9349019924595015
1.815581720986415,11.78508545032259,-0.014506777726265865,0.06599084447407931,-0.8140700378958382
1.8129555895675884,11.77368577355238,-0.013136710892959355,0.05400575310708179,-0.6851051488284827
1.810613175736035,11.764538778374419,-0.011520276807603267,0.0422784066609295,-0.5493005568754492
1.8086084168496759,11.757597556392508,-0.009582448311966295,0.03078708788550679,-0.4084665452229858
1.8070136703077377,11.75281877587437,-0.007204357392645156,0.01951586493699177,-0.26480830657959764
1.8059334282844914,11.750157823294202,-0.004166611273107056,0.008494162222681751,-0.1205986034703449
