x,y,v_x,v_y,omega
2.375,32.48,0.0,2.41025641025641,-3.3469387755102042
2.3743493058145027,31.97905618427684,-0.00619708748092516,2.3606370728212798,-3.1667099911690695
2.372479956868108,31.488357433140912,-0.011606235818071433,2.312684366568495,-3.0007194265469557
2.3695474937011975,31.007563416196255,-0.016321984819172373,2.2663062709996593,-2.847487500383589
2.365688895754031,30.53635239100578,-0.020426567058604825,2.22141777843345,-2.7057178774694717
2.3610249801699417,30.07441980520625,-0.023991676599387203,2.1779401815620605,-2.574271507581794
2.3556624586194634,29.621477038429347,-0.02707995721469124,2.1358004544084666,-2.452144787766553
2.3496957059076076,29.177250266008382,-0.02974625908870132,2.0949307115054716,-2.3384511224215982
2.343208284827859,28.741479429331626,-0.03203870357556912,2.055267733035073,-2.23240529599433
2.336274264194077,28.31391730003837,-0.03399958817473764,2.016752545948342,-2.133310183781794
2.3289593608474033,27.894328627160956,-0.03566615798405721,1.9793300528841427,-2.04054541413986
2.3213219314155027,27.482489357884194,-0.03707126517690286,1.942948702132633,-1.953557665501101
2.313413835474882,27.078185923892,-0.03824393425757993,1.9075601930311292,-1.8718523378519818
2.3052811883605377,26.681214586353313,-0.039209847783794036,1.8731192120992168,-1.7949863836932807
2.2969650190440056,26.291380833506544,-0.039991764754603476,1.8395831959652413,-1.7225621202820882
2.288501846152624,25.908498825567037,-0.040609881829984124,1.8069121177443794,-1.654221874892946
2.2799241832427968,25.532390882330965,-0.04108214588265553,1.7750682940277247,-1.5896433393134821
2.271260982798801,25.162887009402368,-0.041424525012547245,1.7440162100541678,-1.5285355298826007
2.2625380270500974,24.799824459443844,-0.0416512440227211,1.7137223609793766,-1.470635265935015
2.2537782725388356,24.44304732525957,-0.04177498941786728,1.6841551074422947,-1.4157040932063398
2.245002154388237,24.092406161871796,-0.041807088206886,1.655284543869823,-1.3635255901127625
2.2362278553917214,23.747757635058342,-0.041757664140879724,1.6270823781630832,-1.3139030042759874
2.2274715443371567,23.408964194085257,-0.04163577447402275,1.5995218215805922,-1.2666571745610988
2.2187475873801334,23.07589376660238,-0.041449529878575794,1.5725774877801164,-1.2216247005091316
2.210068735767914,22.748419473874307,-0.041206199761614645,1.5462253001062731,-1.1786563266017271
2.2014462927776575,22.426419364699697,-0.04091230490749232,1.520442406318581,-1.1376155134745267
2.1928902623572326,22.10977616653126,-0.04057369909655147,1.4952071000474914,-1.0983771721475724
2.184422049338867,21.798379095985858,-0.04007594869741183,1.470479286099208,-1.0575836293639065
2.176060576615807,21.492121478466565,-0.03955712485553497,1.4462599283702686,-1.0187323862794189
2.1678099105159476,21.190898507271164,-0.039020647524080056,1.4225302734906862,-0.9817073318377765
2.159673438374573,20.894609220215543,-0.03846956334615607,1.3992724603723716,-0.9464006114556449
2.1516539427653534,20.603156317862762,-0.03790658531307791,1.376469466796966,-0.9127119471442654
2.1437536678643667,20.316445992566983,-0.037334128029653184,1.3541050598295048,-0.8805480210663216
2.1359743788154235,20.034387767562464,-0.03675433910313721,1.332163749737304,-0.8498219159261305
2.128317414863287,19.756894345392,-0.03616912710768888,1.310630747124314,-0.8204526063482884
2.1207837369323768,19.483881465026982,-0.03558018652002418,1.289491923018691,-0.7923644960622438
2.113373970250582,19.21526776708405,-0.03498901997326376,1.2687337716758689,-0.7654869962906996
2.106088442549355,18.950974666590547,-0.0343969581336566,1.2483433758813505,-0.7397541412492361
2.0989272183111765,18.69092623279451,-0.03380517746804354,1.2283083745570846,-0.7151042371124813
2.0918901294825587,18.43504907555426,-0.033214716137841924,1.2086169324929161,-0.6914795411965959
2.0849768030242144,18.183272237878256,-0.032626488227339295,1.1892577120404284,-0.6688259684556916
2.0781866856289333,17.935527094218834,-0.03204129648962524,1.1702198466207427,-0.6470928226970353
2.071519065901453,17.691747254153036,-0.03145984377209227,1.1514929159106748,-0.6262325501916316
2.064973094262591,17.451868471111176,-0.03088274326469256,1.1330669225832357,-0.606200513597469
2.0585478008115397,17.2158285558386,-0.03031052769769724,1.1149322704889264,-0.5869547843261927
2.0522421113551483,16.98356729429902,-0.029743657601269194,1.097079744173751,-0.5684559516735753
2.0460548617907355,16.75502636974874,-0.029182528726468426,1.0795004896384517,-0.5506669472027638
2.039984811009262,16.53014928873032,-0.028627478716138927,1.0621859962512512,-0.5335528830194284
2.0340306524681178,16.308881310751925,-0.02807879310428299,1.045128079733461,-0.517080902711796
2.028191024567214,16.09116938143482,-0.027536710713846682,1.0283188661437366,-0.5012200438480389
2.022464519948167,15.876962068926503,-0.027001428515173398,1.0117507767926153,-0.48594111103028254
2.0168496938240104,15.666209503390725,-0.02647310600060518,0.9954165140243022,-0.4712165586000435
2.0113491037291333,15.45900403045692,-0.025913466331553125,0.9779689424881137,-0.4837661662074407
2.005963082987773,15.25545017223848,-0.02538196930045063,0.9606392310208588,-0.4983570644359137
2.000685718287975,15.05552352694595,-0.024878646888103095,0.9434240574794022,-0.5148732583128546
1.995511100912873,14.859200376621068,-0.02440342335096422,0.9263202313289983,-0.5332019804473827
1.9904333483932564,14.666457660083555,-0.023956124454908686,0.9093246880758982,-0.5532334409607771
1.9854466242976443,14.477272947001609,-0.023536485979492254,0.8924344841331283,-0.5748605856207734
1.9805451563075898,14.29162441299708,-0.02314416154483646,0.875646792100457,-0.5979788612171957
1.9757232527154394,14.109490815700113,-0.022778729808976293,0.8589588964420911,-0.6224859872447785
1.9709753174721494,13.93085147167114,-0.022439701079498716,0.8423681895481179,-0.6482817329810655
1.9662958639039498,13.755686234110932,-0.022126523379546247,0.8258721681681354,-0.6752676990630462
1.9616795272086003,13.583975471281445,-0.0218385880047334,0.8094684302079304,-0.703347102675719
1.9571210758346627,13.415700045561952,-0.02157523460419698,0.7931546718824922,-0.7324245654690024
1.952615421840558,13.250841293066074,-0.021335755815847502,0.7769286852211224,-0.7624059033162538
1.9481576303241912,13.089381003745949,-0.021119401482883066,0.7607883559229387,-0.7931979170179151
1.9437429280085354,12.931301401909849,-0.020925382475744,0.7447316615637208,-0.8247081830372401
1.9393667110637876,12.776585127079088,-0.020752874140902353,0.7287566701578209,-0.8568448433313691
1.9350245522424998,12.625215215108923,-0.020601019395170627,0.7128615390818248,-0.8895163933097964
1.9307122074004437,12.4771750794965,-0.020468931481554438,0.6970445143698272,-0.9226314669130872
1.9264256214728763,12.332448492796338,-0.02035569640003953,0.6813039303936265,-0.9560986177569816
1.922160933973345,12.191019568060792,-0.020260375024068585,0.6656382099449182,-0.9898260952301811
1.9179144840801836,12.052872740218799,-0.020182004910801073,0.6500458647407136,-1.0237216143674368
1.9136828153744438,11.917992747301351,-0.02011960181053117,0.63452549637782,-1.0576921182422956
1.9094626802921655,11.786364611416108,-0.020072160877834488,0.6190757977673605,-1.0916435315351682
1.9052510443536632,11.657973619366498,-0.0200386575840909,0.6036955550860812,-1.1254805038313875
1.9010450902328988,11.532805302802252,-0.020018048327952797,0.5883836502876937,-1.1591061410896988
1.8968422217310728,11.410845417778432,-0.02000927073705636,0.573139064224861,-1.1924217235932744
1.8926400677203516,11.292079923588542,-0.020011243650764853,0.5579608804407747,-1.2253264085520088
1.8884364861261775,11.17649496072389,-0.02002286676993978,0.5428482896987701,-1.2577169153658416
1.8842295680199954,11.064076827795947,-0.020043019955604174,0.5278005953292424,-1.289487191383722
1.8800176418985046,10.954811957240402,-0.02007056215383258,0.5128172194854732,-1.3205280558015735
1.8757992782308355,10.848686889600952,-0.020104329919205896,0.49789771041406766,-1.350726819135925
1.8715732943614378,10.745688246166985,-0.020143135503629412,0.4830417508617916,-1.3799668754894763
1.8673387598640871,10.645802699711808,-0.020185764471139286,0.4682491677589428,-1.408127264594049
1.8630950024514141,10.54901694304639,-0.02023097279241435,0.45351994334027096,-1.4350822003807069
1.8588416145548914,10.455317655067404,-0.020277483364944712,0.4388542278881515,-1.4607005625951974
1.8545784607024876,10.364691463936655,-0.020323981896043158,0.4242523543094734,-1.4848453477629242
1.850305685835429,10.277124906981452,-0.020369112075944693,0.4097148547877064,-1.5073730756319328
1.8460237247219793,10.192604386851325,-0.020411469956908332,0.3952424797849466,-1.5281331471152175
1.8417333126451738,10.111116123404855,-0.020449597441237855,0.3808362197052526,-1.5469671497594213
1.8374354975634017,10.032646100730975,-0.020481974766115928,0.36649732956978237,-1.5637081069501662
1.8331316539681202,9.95718000863117,-0.02050701185561324,0.35222735709503955,-1.5781796675179924
1.8288234986923815,9.884703177802567,-0.020523038389518244,0.3380281746059472,-1.5901952332674982
1.824513108958036,9.815200507867477,-0.02052829241377015,0.32390201525205314,-1.5995570234090046
1.8202029429894706,9.748656387293668,-0.020520907286854784,0.30985151402231004,-1.606055077204891
1.8158958635689169,9.685054604144756,-0.020498896718417852,0.29587975406255196,-1.6094661997515454
1.8115951649647148,9.624378246496722,-0.020460137607315614,0.28199031877586617,-1.609552861278384
1.8073046037322091,9.566609591263958,-0.020402350321310443,0.26818735010761147,-1.6060620684871936
1.8030284339714457,9.511729980111387,-0.02032307597167499,0.2544756132502197,-1.5987242384745723
1.7987714477328245,9.459719681111938,-0.0202196501104317,0.24086056769691605,-1.587252123403447
1.794539021401203,9.410557734878438,-0.02008917209548732,0.22734844405071059,-1.5713398598051498
1.790337169076031,9.364221784113475,-0.019928469096625885,0.2139463251394209,-1.5506622537816057
1.78617260422442,9.32068788596802,-0.019734053299670568,0.20066222862682492,-1.5248744675640802
1.7820528112548928,9.279930307412041,-0.019502070219635046,0.1875051861920239,-1.4936123511446746
1.7779861292054684,9.241921305195167,-0.019228235012978333,0.17448531111152613,-1.456493775187948
1.773981850563972,9.206630894200583,-0.018907752048892,0.16161384121785308,-1.413121481949929
1.7700503395095284,9.17402661148122,-0.018535210374380637,0.14890313706177455,-1.3630881972979925
1.7662031758570316,9.14407328857651,-0.018104443458919785,0.13636660488785315,-1.3059850599528036
1.7624533341487618,9.116732852560009,-0.017608334715077417,0.12401850003120202,-1.2414148426807474
1.758815412393791,9.09196418746545,-0.017038539141789676,0.11187354848840644,-1.169011967119076
1.755305933066555,9.069723102880012,-0.016385073498551624,0.09994630470623013,-1.088471900868389
1.7519437519714223,9.049962475209881,-0.015635698836047433,0.08825014929500541,-0.9995929961013471
1.7487506313081922,9.032632646313274,-0.014774974147095266,0.07679584019648668,-0.9023337276807832
1.745752066188466,9.017682174438868,-0.013782788897915831,0.06558960622643989,-0.796886629999823
1.742978506468281,9.005059011614001,-0.012632065580035018,0.054630992105631326,-0.6837652207672815
1.74046720384072,8.99471208586964,-0.011285102301499803,0.04391115784065151,-0.5638893554810632
1.7382650829946091,8.986593019796317,-0.009687477185268592,0.03341328095289119,-0.43863631711260187
1.7364334519557958,8.980657188624726,-0.007756627946287358,0.02311844449083305,-0.3098037874088418
1.7350567716513021,8.976862144409274,-0.005354613048891565,0.013024833751574911,-0.1794217331761594
1.734264754943117,8.975157119434652,-0.0021884032195401775,0.003213499340073969,-0.0493811164247408
