x,y,v_x,v_y,omega
2.375,32.48,0.0,3.846153846153846,-6.775510204081632
2.373214694058236,31.759070463170403,-0.018792694123831416,3.7425781204734703,-6.267997187440267
2.36816351234027,31.057338339513425,-0.03437763974949697,3.64407581275785,-5.8180023038006725
2.3604056749053766,30.373877595233964,-0.047283806933590085,3.5502478112364977,-5.41714695885743
2.3504088954430395,29.707833797715928,-0.057945450564692136,3.460739531058627,-5.058491743498795
2.3385655999087573,29.058416296279795,-0.06672081821722745,3.3752341682690505,-4.736254964263263
2.32520597848231,28.424891559328415,-0.07390677574537742,3.293447273324451,-4.445592757201099
2.3106085530374445,27.806577446966436,-0.07975033420057333,3.2151223304858214,-4.18242586815641
2.295008780259297,27.20283824962681,-0.0844578003062448,3.1400271151944534,-3.94330215358697
2.2786060908949004,26.613080360853107,-0.08820208774003165,3.0679506613708503,-3.7252866726013387
2.2615696761817308,26.036748480294353,-0.09112859345122909,2.998700712931822,-3.5258732671255464
2.244043264911463,25.473322263964057,-0.09335994623580189,2.932101564229205,-3.342913003442995
2.2261490830180133,24.922313354819526,-0.09499986316892996,2.867992216239546,-3.1745559364099645
2.207991147894248,24.38326273907076,-0.09613629602859725,2.8062247916421774,-3.0192034678996955
2.1896580188655292,23.85573838327597,-0.09684400953686871,2.7466631640924715,-2.875469180108495
2.171225101213437,23.339333114899514,-0.09718670259041444,2.689181766185998,-2.7421464861680045
2.1527565822529757,22.833662715087307,-0.09721876015128487,2.6336645476266964,-2.618181793431395
2.1343070630329515,22.338364197312487,-0.09698670532265508,2.5800040605292858,-2.502652146482165
2.1159229373594806,21.85309424952616,-0.09653040702966786,2.5281006530110264,-2.394746527470252
2.0976435603605625,21.377527820712363,-0.09588408769578756,2.4778617555552493,-2.2937501555920345
2.0795022411994752,20.911356835443616,-0.09507716663144465,2.429201247273667,-2.1990312563533574
2.0615270884099335,20.454289022277713,-0.0941349679953144,2.3820388913147945,-2.110029872873499
2.0437417313598707,20.006046843716735,-0.09307931674218745,2.3362998303797124,-2.0262483720651123
2.026165937314961,19.566366517033934,-0.09192904162528268,2.2919141347024006,-1.9472433627320966
2.0088161402809686,19.134997116617477,-0.09070040083779309,2.2488163959971676,-1.872618794028682
1.991705895109189,18.711699749624692,-0.08940744307567851,2.206945361821586,-1.8020200440552452
1.9748462681357346,18.29624679772064,-0.08806231453962976,2.166243605589468,-1.7351288417425574
1.9582461738014165,17.888421218517713,-0.08667552055845656,2.1266572281255773,-1.6716588922366253
1.9419126651912162,17.4880159010612,-0.08525614902259841,2.0881355872061396,-1.6113520980210063
1.9258511851823377,17.09483307033701,-0.08381206159717587,2.050631051995834,-1.5539752860060672
1.9100657838504915,16.708683736327046,-0.08235005768541567,2.0140987796880374,-1.4993173655656749
1.8945593069175497,16.329387183617367,-0.08087601529291784,1.9784965119927707,-1.4471868546367568
1.8793335592993317,15.956770497984493,-0.07939501226727358,1.943784389405892,-1.3974097210129737
1.864389447205188,15.59066812675399,-0.07791143082897425,1.909924781441526,-1.3498274942568667
1.849727101730998,15.230921470050763,-0.07642904784671051,1.876882131224011,-1.3042956105427121
1.8353459864576267,14.877378500347476,-0.0749511129256185,1.8446228130211035,-1.2606819584800926
1.821244991204305,14.529893407971656,-0.07348041605671743,1.8131150014612094,-1.2188655987617116
1.8074225137796276,14.188326270457669,-0.0720193463083052,1.7823285513176192,-1.1787356344948094
1.7938765313128013,13.852542743830302,-0.07056994281618366,1.7522348868651916,-1.1401902124489673
1.7806046625267993,13.522413774085503,-0.06913393914173184,1.7228068999221502,-1.103135638294342
1.7676042221269914,13.19781532729344,-0.06771280190887596,1.6940188557837903,-1.067485591303496
1.7548722683183504,12.878628136891898,-0.0663077644978733,1.6658463063377187,-1.0331604260208294
1.7424056443272204,12.564737466866099,-0.0649198564613887,1.6382660097233077,-1.0000865501268432
1.7302010146862359,12.256032889625935,-0.06354992923318506,1.6112558559626098,-0.9681958691901067
1.7182548969402731,11.952408077495004,-0.062198678619054516,1.5847947980471746,-0.9374252902492156
1.7065636893448128,11.653760606819006,-0.06086666449105394,1.55886278801596,-0.907716277234479
1.6951236950536273,11.359991773785048,-0.05955432804774264,1.5334407176046592,-0.8790144521530461
1.683931143228524,11.071006421119343,-0.058262006953343416,1.508510363086959,-0.8512692367453986
1.6729822074484655,10.786712774899492,-0.05698994862622071,1.4840543339641157,-0.8244335299953996
1.662282246736118,10.50702421013451,-0.05564121676690894,1.4600358214567501,-0.7958490046245021
1.6518354892003764,10.231857069579085,-0.054324652030371706,1.436460394916155,-0.7685129344345474
1.6416358760667225,9.961128615564117,-0.05303969674493406,1.4133128052414008,-0.7423564490453504
1.6316774577603388,9.694758944311573,-0.051785759111735157,1.390578471101171,-0.7173151968774922
1.6219543997012251,9.43267086256148,-0.05056222045788378,1.3682434420577012,-0.6933290013041201
1.612460986813977,9.17478977097528,-0.0493684415131494,1.346294364112827,-0.6703415464691047
1.6031916269260433,8.921043553872902,-0.04820376783352215,1.324718447491142,-0.6483000899157102
1.5941408532063344,8.671362474894565,-0.04706753447920097,1.3035034364913483,-0.6271551994727875
1.585303325776926,8.425679078209004,-0.045959070040887465,1.282637581251404,-0.6068605121133348
1.5766738326138854,8.183928094917935,-0.044877700096383366,1.2621096112861796,-0.587372512737461
1.5682472898386584,7.9460463543322675,-0.043822750169163954,1.2419087106682083,-0.5686503310421351
1.5600187414886841,7.711972699819167,-0.04279354825161598,1.2220244947328576,-0.5506555548268776
1.5519833588447391,7.481647908940641,-0.041789426947804575,1.202446988199001,-0.533352058250627
1.5441364393827355,7.255014617624251,-0.04080972528381367,1.1831666046051141,-0.51670584370286
1.5364734054091365,7.032017248124731,-0.03985379022775369,1.1641741269687653,-0.5006848960838288
1.5289898024316482,6.812601940552142,-0.03892097795633431,1.1454606895847887,-0.48525904840639517
1.5216812973102622,6.596716487757597,-0.038010654900358765,1.1270177608840928,-0.47039985773702747
1.5145436762279636,6.3843102733818995,-0.037122198597524185,1.1088371272811377,-0.4560804905875366
1.5075728425153423,6.175334212885545,-0.03625499837743597,1.0909108779436598,-0.44227561695331763
1.5007648143589196,5.969740697390684,-0.03540845590069869,1.0732313904232929,-0.42896131226935014
1.4941157224190817,5.767483540176887,-0.034581985571276834,1.055791317090368,-0.4161149666229602
1.4876218073801077,5.568517925682862,-0.03377501483897748,1.0385835723204189,-0.40371520062322674
1.4812794174517538,5.37280036087596,-0.03298698440685212,1.0216013203838037,-0.391741787381671
1.4750850058392344,5.180288628860122,-0.03221734835651076,1.004837963993423,-0.38017558010817243
1.4690351281961043,4.990941744601212,-0.0314655742027558,0.9882871334687799,-0.36899844487049294
1.463133178019627,4.80492515460233,-0.0306602171285828,0.9697822349405246,-0.401366630115421
1.4573795401476686,4.622414348717079,-0.02990439204992641,0.9513841427989416,-0.4351388497447255
1.4517649482626316,4.443389296070002,-0.02919657516098957,0.9330900955913315,-0.4702087435978994
1.4462804272134318,4.2678304801572935,-0.028535225356902814,0.9148974403319206,-0.5064718846060192
1.4409172959813774,4.095718878553189,-0.027918787612090067,0.8968036291849776,-0.54382554345797
1.435667170039098,3.92703594321058,-0.027345695990850842,0.8788062165266918,-0.5821684564126941
1.4305219631701185,3.7617635812843275,-0.026814376314198425,0.8609028563812133,-0.6214005952492276
1.4254738888123661,3.5998841364063523,-0.026323248504247502,0.8430913002290548,-0.6614229383372281
1.4205154609851072,3.4413803703416406,-0.02587072862479271,0.8253693951889554,-0.7021372417935792
1.4156394948555087,3.2862354449538387,-0.025455230634138296,0.8077350825773673,-0.7434458096651203
1.4108391069982138,3.134432904407955,-0.02507516786370407,0.7901863968529748,-0.785251262043137
1.4061077153989872,2.9859566575359935,-0.02472895423341933,0.7727214649571509,-0.8274562999714228
1.4014390392516343,2.840790960288885,-0.024415005212398793,0.7553385060650488,-0.8699634659558205
1.396827098596026,2.698920398194918,-0.02413173853084547,0.7380358317661793,-0.9126748988184279
1.3922662138441768,2.56032986874083,-0.023877574646516644,0.7208118466979094,-0.9554920815632302
1.3877510052409507,2.425004563586789,-0.023650936966389265,0.7036650496604145,-0.9983155808308383
1.3832763923061167,2.2929299505205556,-0.0234502518213377,0.6865940352473158,-1.0410447764171697
1.3788375933051675,2.1640917550489576,-0.023273948188652742,0.6695974960326507,-1.0835775792131372
1.374430124797611,2.0384759415164595,-0.023120457154046967,0.6526742253620701,-1.1258101357884303
1.3700498013133469,1.9160686936306455,-0.02298821110136351,0.6358231208043776,-1.1676365176909687
1.3656927352103414,1.796856394262985,-0.022875642614484073,0.6190431883288945,-1.2089483933632308
1.3613553367701385,1.680825604379681,-0.022781183071862953,0.6023335472848161,-1.2496346803861362
1.3570343145918962,1.5679630409418834,-0.022703260909635387,0.585693436270963,-1.2895811755493767
1.3527266763506731,1.4582555535962989,-0.02264029952429122,0.5691222199983414,-1.3286701600132529
1.3484297299917283,1.3516900999563752,-0.022590714780390236,0.5526193972640128,-1.3667799765709612
1.344141085439741,1.2482537192498384,-0.022552912082633776,0.5361846101732264,-1.4037845757425562
1.3398586569102449,1.1479335040804273,-0.022525282964696084,0.5198176547679497,-1.4395530271345784
1.335580665920352,1.0507165700192722,-0.022506201139439543,0.5035184932442053,-1.4739489921867668
1.3313056451072016,0.9565900227040771,-0.022494017946352907,0.48728726796839017,-1.5068301541067288
1.3270324429756988,0.865540922081312,-0.02248705712209816,0.4711243175344143,-1.5380476004768762
1.3227602297122696,0.7775562433772976,-0.02248360880873549,0.4550301951394092,-1.5674451537240695
1.3184885042188181,0.6926228343274126,-0.022481922701279754,0.4390056895962218,-1.594858644399773
1.3142171025411606,0.6107273681279004,-0.022480200221429898,0.4230518493460295,-1.6201151220697714
1.3099462078893385,0.5318562915010467,-0.022476585587225397,0.407170009883996,-1.6430319986208406
1.3056763624738428,0.45599576718096557,-0.02246915562851842,0.3913618250642181,-1.6634161190499466
1.3014084814125255,0.38313161003332397,-0.02245590817482116,0.37562930280569395,-1.6810627554451592
1.2971438689985564,0.3132492159180913,-0.022434748814326902,0.3599748457756995,-1.6957545210939797
1.2928842376612115,0.24633348229021834,-0.022403475789303674,0.3444012976756226,-1.7072602037515014
1.2886317299998333,0.1823687194111372,-0.022359762751520358,0.32891199578836816,-1.7153335204854394
1.2843889443288148,0.1213385509183027,-0.02230113904867467,0.31351083045201605,-1.7197118017952107
1.2801589642405158,0.06322580237781494,-0.0222249671439467,0.298202312079409,-1.7201146207623916
1.2759453927774425,0.0080123763400195,-0.022128416677878193,0.2829916462131829,-1.7162423951190133
1.271752391910597,-0.044320887649725194,-0.0220084345520726,0.26788481683676535,-1.7077750081981293
1.267584728156572,-0.09379436962800725,-0.02186171022714015,0.25288867767148177,-1.6943705215003741
1.2634478253458161,-0.14042984379024404,-0.02168463514923732,0.23801105035204634,-1.6756640910679
1.2593478258011022,-0.18425067213836144,-0.021473254795119592,0.22326082699657107,-1.651267257811895
1.2552916615350558,-0.2252820175893291,-0.021223211163262326,0.2086480724872841,-1.6207678667810526
1.2512871375883579,-0.26355107571735203,-0.02092967248618942,0.19418411833403948,-1.583730994062025
1.247343030404043,-0.2990873222556729,-0.020587245243442073,0.17988163470091034,-1.5397014393145212
1.2434692053304832,-0.3319227701767957,-0.020189860794028652,0.1657546592056348,-1.488208599419962
1.2396767592349627,-0.3620922249935674,-0.01973062442197599,0.15181854939197795,-1.4287749026655792
1.2359781972360402,-0.3896335190577602,-0.01920160714563017,0.13808980917848435,-1.360929483661291
1.23238765745878,-0.41458769408249196,-0.018593548404476735,0.12458571739765935,-1.2842294359798667
1.2289212056775778,-0.4369990849301715,-0.017895417713440893,0.11132365994636632,-1.198291764426648
1.2255972346582618,-0.4569152366744831,-0.01709375091093802,0.09832004262536329,-1.1028399119691255
1.222437023980685,-0.47438656331067364,-0.016171624642501426,0.0855886588081942,-0.9977689860864363
1.2194655498777072,-0.4894656387273102,-0.015107050125687157,0.07313845084061671,-0.8832324441073016
1.216712688981518,-0.5022060205203118,-0.013870432992093524,0.060970831190951646,-0.759747818003813
1.2142150502096818,-0.5126605914013851,-0.012420501448289177,0.04907728334663529,-0.6283066479594791
1.212018837435186,-0.5208796459416902,-0.010697527756930409,0.03743908023552163,-0.49045119215020827
1.2101845463056233,-0.526909495657506,-0.008610799922674472,0.026033022036235455,-0.3482511560227718
1.208795624305942,-0.5307935704938345,-0.006009431652918909,0.014851976240940363,-0.20409601600596258
1.2079797761879236,-0.5325821224657119,-0.0025784432735880248,0.00397488662089966,-0.060247059666725805
