x,y,v_x,v_y,omega
2.375,32.48,0.0,2.3076923076923075,-2.8571428571428577
2.374623342457347,32.0684182122833,-0.00418508380725514,2.265438666937671,-2.7268082394759174
2.3735350805714757,31.66433762395057,-0.007906714924650973,2.2243456478704244,-2.6049627513363
2.3718143769569355,31.267554166537046,-0.011212214125794767,2.1843594345020807,-2.49086785198309
2.3695323470691174,30.877873153277086,-0.014143673516625066,2.145429601719675,-2.3838621841950167
2.366752942935625,30.495108694095574,-0.016738594633292768,2.107508833630457,-2.28335232069681
2.3635337297606616,30.119083158601693,-0.019030440644079806,2.0705526718571283,-2.1888047558862738
2.3599265697196525,29.74962668205028,-0.021049115367130652,2.0345192898252327,-2.099738957180296
2.3559782251588413,29.38657670989213,-0.022821379752993254,1.999369289709781,-2.015721320719244
2.3517308916504582,29.02977757708844,-0.02437121478459494,1.9650655192201292,-1.9363599011458301
2.347222669868688,28.67908011883452,-0.025720138346186333,1.9315729058233955,-1.8612998057660735
2.342487983996951,28.33434130973844,-0.026887482450896293,1.8988583063552547,-1.7902191604428714
2.337557953313927,27.99542392884336,-0.027890636249371166,1.8668903702568,-1.7228255687305891
2.3324607227024203,27.662196248177587,-0.02874525943403376,1.8356394149184232,-1.6588529975616235
2.327221757055488,27.334531742771567,-0.02946546997632562,1.805077311815119,-1.5980590326676212
2.3218641038967736,27.01230882030217,-0.030064009564941676,1.7751773822892982,-1.5402224552009138
2.3164086279689644,26.69541056871769,-0.03055238963294104,1.7459143019826822,-1.4851410979924418
2.310874221060996,26.383724520365405,-0.030941020455598593,1.7172640130427248,-1.4326299457657015
2.305277989928898,26.07714243129142,-0.031239325456593692,1.6892036433348712,-1.3825194486053698
2.299635424806732,25.77556007451283,-0.03145584256748074,1.661711431982832,-1.3346540222042846
2.2939605506944174,25.478877046177015,-0.03159831423600969,1.6347666606373366,-1.2888907120066437
2.2882660633412484,25.186996583624918,-0.03167376746587053,1.6083495899415143,-1.2450980014302617
2.2825634516113897,24.8998253944654,-0.03168858508811289,1.582441400719808,-1.2031547469704942
2.2768631077157315,24.617273495848455,-0.031648569308091026,1.5570241394684565,-1.1629492252327376
2.2711744266186424,24.339254063196968,-0.03155899843734499,1.5320806677702745,-1.124378278867213
2.2655058957749175,24.06568328772104,-0.031424677604039976,1.507594615295599,-1.087346550037432
2.259865176218344,23.796480242096724,-0.031249984135669873,1.4835503360856817,-1.0517657914828096
2.254259511241656,23.5315680084992,-0.0310351822719712,1.4599189261090046,-1.01650358205338
2.248694829340859,23.27087224841995,-0.03079461662577254,1.4367006303271224,-0.9827280764070109
2.2431755122808417,23.01431983716828,-0.030531128485533746,1.4138817169136428,-0.9503599336892221
2.237705453781877,22.761840069746192,-0.030247299280738715,1.3914490322206745,-0.9193248438132204
2.2322881041364577,22.513364559554883,-0.02994547455725586,1.3693899699049972,-0.8895531574039521
2.2269265107210243,22.268827142481328,-0.029627785614225348,1.347692442023375,-0.8609795466142869
2.2216233548015722,22.02816378602374,-0.02929616904635228,1.3263448519498275,-0.8335426939370268
2.2163809849906593,21.791312503140027,-0.028952384408234298,1.305336068980319,-0.8071850064320724
2.211201447676516,21.558213270526643,-0.028598030193359786,1.284655404501739,-0.7818523530505087
2.20608651471218,21.328807951056376,-0.028234558299262885,1.2642925896123614,-0.7574938229706512
2.201037708623397,21.103040220123134,-0.027863287131654587,1.2442377540903022,-0.7340615030687123
2.1960563255680015,20.88085549565966,-0.027485413483854207,1.2244814066149563,-0.7115102728317915
2.191143456256262,20.66220087161045,-0.027102023313252954,1.2050144161540628,-0.6897976151859984
2.186300005020944,20.44702505465734,-0.026714101523617143,1.1858279944360295,-0.6688834418600373
2.181526707207266,20.235278304009086,-0.026322540850579567,1.166913679433484,-0.6487299320365227
2.1768241450363393,20.02691237407899,-0.02592814993749664,1.1482633197897976,-0.629301383161463
2.1721927620807815,19.821880459886604,-0.025531660679811802,1.1298690601255958,-0.6105640728882855
2.167632876477876,19.620137145030263,-0.025133734908027845,1.1117233271670774,-0.5924861312278603
2.163144692993652,19.421638352087413,-0.024734970472234604,1.0938188166423544,-0.5750374220614187
2.1587283140405225,19.22634129530896,-0.02433590678476078,1.0761484808960473,-0.558189433250111
2.1543837497414295,19.034204435482472,-0.023937029871829676,1.0587055171760482,-0.5419151746441458
2.150110927124763,18.845187436847148,-0.023538776980018893,1.0414833565497366,-0.5261890833568267
2.1459096985264705,18.65925112595077,-0.023141540778784445,1.0244756534100266,-0.5109869357250737
2.1417798492687177,18.476357452345766,-0.022745673196248952,1.0076762755344684,-0.4962857654288499
2.1377211046780915,18.296469451027974,-0.022351488921818177,0.9910792946632343,-0.48206378728785293
2.133735213567225,18.11977614318443,-0.021936190087810878,0.9721796813760979,-0.5175721191636814
2.1298208458499657,17.946475419703685,-0.021556784548406052,0.9533839128544415,-0.5542961709377533
2.125971634884948,17.776548820936974,-0.02121222617401221,0.9346894067756756,-0.5921329023347565
2.122181405500137,17.609978342874346,-0.020901433657223193,0.9160936828090799,-0.6309806539425584
2.118444179978539,17.446746419009003,-0.020623294360527622,0.8975943601391877,-0.670738925483828
2.1147541833857066,17.286835902615223,-0.020376667782055612,0.8791891553472181,-0.7113081546387815
2.1111058483058587,17.130230049375257,-0.02016038866069878,0.8608758806524199,-0.7525894954526398
2.107493819049865,16.976912500289913,-0.019973269739230796,0.8426524425180649,-0.7944845953326137
2.1039129553952085,16.826867264806598,-0.01981410420139923,0.8245168406298944,-0.8368953696023003
2.1003583359154128,16.680078704096676,-0.019681667796330824,0.8064671672581308,-0.879723772535678
2.096825260954256,16.536531514411845,-0.019574720660965494,0.7885016070177645,-0.9228715637378159
2.0933092552983967,16.396210710446127,-0.019492008848582723,0.7706184370457716,-0.9662400686741777
2.089806070600834,16.259101608626363,-0.019432265568778972,0.7528160276182863,-1.0097299320741764
2.086311687606912,16.125189810249513,-0.019394212141465892,0.7350928432356028,-1.0532408628464462
2.08282231823437,15.99446118437956,-0.01937655866455339,0.7174474442083201,-1.0966713690421028
2.0793344075592874,15.866901850410247,-0.019378004391923664,0.6998784887840568,-1.139918481286898
2.0758446357606597,15.742498160192184,-0.019397237815052336,0.682384735861073,-1.1828774629724128
2.0723499200778717,15.62123667961382,-0.019432936438147915,0.6649650483429768,-1.225441505348978
2.068847416837476,15.503104169515165,-0.01948376623291269,0.6476183971976132,-1.2675014054975595
2.0653345236085707,15.388087565800973,-0.019548380754923066,0.630343866293412,-1.3089452249731206
2.061808881549706,15.276173958605735,-0.019625419899125172,0.6131406580981125,-1.349657926706865
2.0582683780147573,15.167350570346475,-0.019713508266974416,0.596008100338112,-1.3895209875284127
2.054711149490628,15.061604732480166,-0.019811253112238896,0.5789456537319704,-1.4284119834210327
2.0511355849461554,14.958923860760667,-0.019917241826348776,0.5619529209291292,-1.4662041443539697
2.0475403296792263,14.859295428764593,-0.02003003891730765,0.5450296568050126,-1.5027658752473783
2.043924289758106,14.762706939426337,-0.020148182428472494,0.5281757802867056,-1.5379602393209193
2.0402866371634096,14.669145894288658,-0.02027017973482375,0.5113913879097496,-1.5716443997630611
2.0366268157492677,14.578599760136484,-0.020394502644530247,0.4946767693366289,-1.603669015344925
2.0329445481562365,14.491055932637043,-0.020519581722480737,0.47803242510162064,-1.633877585306514
2.029239843824633,14.406501696558234,-0.020643799739781175,0.461459086885132,-1.6621057385893043
2.025513008275567,14.324924182078846,-0.020765484138729452,0.44495774066363303,-1.688180462314849
2.02176465384833,14.246310316637537,-0.020882898386128213,0.428529653128697,-1.7119192643695844
2.017995712107411,14.170646771692159,-0.02099423206852758,0.41217640181995957,-1.7331292651325194
2.014207448160799,14.097919903675997,-0.021097589560492493,0.39589990947073084,-1.7516062138932922
2.0104014771640175,14.028115688342911,-0.021190977070415826,0.3797024831191055,-1.767133426525159
2.0065797833223917,13.961219647589324,-0.021272287836534634,0.36358685858742834,-1.7794806427503795
2.002744741748486,13.897216767729002,-0.021339285206862856,0.3475562509717102,-1.7884028042259785
1.9988991435839458,13.836091408079692,-0.02138958328802751,0.33161441179841117,-1.7936387592106107
1.9950462248573448,13.777827198604598,-0.021420624785316474,0.31576569348040756,-1.7949099065095444
1.9911896996250902,13.722406925246649,-0.021429655573070035,0.3000151216079265,-1.7919188018404095
1.9873337980356727,13.669812401516044,-0.021413695420456475,0.2843684753987784,-1.7843477653249824
1.9834833100756017,13.620024324868897,-0.021369504135887313,0.2688323762361701,-1.771857551830361
1.9796436359092797,13.573022116489387,-0.02129354215658176,0.25341438353617385,-1.754086179756203
1.975820843932379,13.528783743326557,-0.021181924253424085,0.2381230960508187,-1.7306480635257149
1.9720217379471192,13.487285521742116,-0.021030364471685825,0.22296825488741812,-1.7011336676082738
1.9682539352839443,13.448501903053156,-0.02083410956358864,0.2079608416565728,-1.6651100055678403
1.9645259583124115,13.412405242837572,-0.0205878567867765,0.19311316073880921,-1.6221224607247149
1.9608473427279494,13.37896555845397,-0.02028564970724837,0.1784388879678587,-1.5716986251115121
1.95722876747449,13.348150283305639,-0.01992074199785685,0.16395305812469163,-1.5133551658115478
1.9536822135029335,13.319924032626918,-0.019485413241658985,0.14967194941666673,-1.4466091617816825
1.9502211623280667,13.294248404852272,-0.018970710923526223,0.13561280363494127,-1.370995935092502
1.946860851442817,13.271081855876123,-0.018366076690359494,0.12179329610005832,-1.2860961258525823
1.9436186135539246,13.250379701317456,-0.017658788741777256,0.1082306434406697,-1.191575542340157
1.9405143426709541,13.232094323425308,-0.016833109957896514,0.09494022202765576,-1.0872418570586282
1.937571156021582,13.216175679715228,-0.015868963924014143,0.08193359697321975,-0.9731217555195735
1.9348163625278816,13.202572216043269,-0.014739852672658333,0.0692159993818927,-0.8495590638380458
1.9322829167908575,13.191232246172355,-0.013409544405386144,0.056783665850499286,-0.7173258620880196
1.9300116569352566,13.182105712016192,-0.011826676212403667,0.04462226921799716,-0.5777211715934167
1.9280548745881945,13.17514587929729,-0.009915349866064098,0.03270920543646229,-0.43260496978731994
1.9264824655801973,13.170309752638527,-0.007555861333903565,0.021025535216443167,-0.28428937685161637
1.9253946877898178,13.167554008654019,-0.004530558559201576,0.009593842389198647,-0.1352095402794183
1.9249646694117628,13.166811916370367,-0.000247423419187643,-0.0013483725708600628,0.012556840297131028
