x,y,v_x,v_y,omega
2.375,32.48,0.0,2.2564102564102564,-6.408163265306122
2.3741014203016593,32.05534685453936,-0.009458733666745042,2.2136228537017497,-6.106669837726509
2.371506788367465,31.63870128582355,-0.017853181430035087,2.17211997488566,-5.825598235485584
2.3674076987100388,31.229825832298193,-0.02529513075339924,2.131832167486536,-5.563088877142461
2.361975737484889,30.828495697991528,-0.031883408458706367,2.092695562057314,-5.317488309847543
2.3553647826231603,30.434497751408237,-0.037705590085806706,2.05465124408257,-5.087322459337867
2.347713003731174,30.04762963515333,-0.042839450882463395,2.017644716495413,-4.871273876843486
2.3391446065944757,29.667698970547196,-0.047354203188049164,1.9816254372533573,-4.668162302815518
2.3297713594573684,29.294522644161272,-0.05131155614992509,1.946546419440599,-4.4769279978034815
2.3196939320734242,28.927926165359068,-0.05476662683895862,1.9123638837404748,-4.296617393367268
2.309003073512501,28.56774308567855,-0.05776872643391714,1.8790369550018535,-4.12637069715384
2.297780650618318,28.21381447232206,-0.06036204087327438,1.8465273961190818,-3.9654111510757337
2.2861005656484483,27.86598842919476,-0.06258622196745636,1.8147993736419508,-3.813035693559776
2.2740295688496652,27.52411965990177,-0.06447690223026122,1.7838192504948038,-3.6686068188642196
2.2616279794123484,27.188069067918363,-0.06606614447833915,1.753555401962139,-3.5315454606084424
2.2489503263191044,26.85770338981758,-0.0673828354505429,1.7239780517302823,-3.4013247545504677
2.236045918984545,26.53289485800058,-0.06845303122902949,1.6950591252907508,-3.2774645585455953
2.2229593562194556,26.213520889846727,-0.06930026103507013,1.6667721184340667,-3.1595266265084896
2.209730980898675,25.899463800598916,-0.06994579497314678,1.63909197891128,-3.0471103488535345
2.1963972867318824,25.590610537637616,-0.0704088804667746,1.6119949996287337,-2.939848984914087
2.182991282701042,25.286852434084686,-0.07070695143680658,1.5854587219810568,-2.83740632372493
2.169542820013755,24.988084979924412,-0.07085581369253446,1.5594618481270694,-2.7394737186806815
2.1560788858087947,24.69420760904019,-0.07086980951757214,1.5339841611805243,-2.6457674492668795
2.1426238673227123,24.405123500747365,-0.07076196402013703,1.5090064524281683,-2.556026369550565
2.1291997897713495,24.120739394560097,-0.0705441154678913,1.4845104548062282,-2.4700098086167555
2.1158337467158908,23.840972525911873,-0.07015107458956871,1.4604039520171754,-2.3840209016826677
2.102548932098134,23.56574302971002,-0.0696890792815594,1.4367486395813105,-2.3018267040325955
2.0893577346774737,23.294966693693517,-0.06916563040959917,1.4135285816449925,-2.2232155500898405
2.0762711839425054,23.02856226395948,-0.06858753522164435,1.3907285734501729,-2.1479898373745856
2.06329907570955,22.766451310174375,-0.06796097249367791,1.3683340979719547,-2.0759649400051656
2.050450085961061,22.508558098724098,-0.06729155117462882,1.3463312857151901,-2.006968217788582
2.037731874092709,22.254809473228804,-0.06658436322907552,1.3247068773931596,-1.9408381114549569
2.025151176612915,22.00513474189866,-0.06584403129506844,1.3034481892399306,-1.87742331562807
2.0127138922280645,21.75946557125122,-0.06507475170336031,1.2825430807331466,-1.8165820220358688
2.00042515914874,21.517735885751577,-0.06428033334215999,1.2619799245262349,-1.758181226267598
1.9882894253655181,21.27988177297276,-0.06346423279701875,1.241747578408692,-1.7020960920922317
1.9763105125657798,21.045841393906528,-0.06262958614759281,1.2218353591305737,-1.6482093679784422
1.964491674294471,20.815554898084557,-0.06177923776092298,1.2022330179428382,-1.5964108510099309
1.952835648900724,20.58896434319668,-0.06091576638378187,1.1829307177190234,-1.5465968938806225
1.9413447077578927,20.366013618917442,-0.06004150880391503,1.1639190115360845,-1.4986699510898132
1.9300206991960174,20.146648374674207,-0.05915858132108962,1.1451888226032638,-1.452538160844612
1.9188650885424017,19.93081595111031,-0.058268899243284225,1.1267314254377518,-1.4081149595217952
1.907878994627224,19.71846531501522,-0.05737419460069191,1.1085384281947823,-1.3653187258485822
1.8970632230763982,19.509546997510277,-0.0564760322501073,1.090601756067788,-1.3240724522362664
1.8864182966828182,19.304013035294098,-0.05557582452441655,1.0729136356814308,-1.2843034409459582
1.8759444831192253,19.101816914765717,-0.05467484456603596,1.0554665804068062,-1.2459430229852735
1.8656418202308953,18.902913518856344,-0.0537742384690155,1.038253376533984,-1.2089262978315882
1.8555101391238553,18.70725907641259,-0.05287503634193217,1.0212670702423448,-1.1731918922540503
1.8455490852440877,18.51481111398474,-0.05197816239246575,1.0045009553139759,-1.138681736665153
1.835758137624974,18.325528409883635,-0.051084444124519034,0.9879485615397547,-1.1053408575753272
1.8261434367792422,18.139593466006495,-0.050122933198976094,0.9692613740091051,-1.1190854039538733
1.8167078875464204,17.957197959081434,-0.04919863767282985,0.950691330465234,-1.1346697628814746
1.8074444889141073,17.778319929570834,-0.04831082161467839,0.9322352959620936,-1.1519683989336793
1.798346386470719,17.602938000895026,-0.047458677789409494,0.9138902690464398,-1.1708584308723875
1.789406885326163,17.43103135448827,-0.04664133425854448,0.895653377340481,-1.191219355388201
1.7806194618319666,17.262579705649337,-0.04585786041721046,0.8775218735956274,-1.2129327764135571
1.771977774204367,17.097563280097997,-0.045107272504889696,0.8594931322079581,-1.235882138866223
1.7634756721471583,16.93596279115026,-0.04438853862362333,0.8415646461892762,-1.2599524656906649
1.75510720556498,16.77775941742614,-0.043700583294045456,0.8237340245909331,-1.2850300970646278
1.7468666324522815,16.622934781003803,-0.04304229157646479,0.8059989903810293,-1.3110024306298482
1.7387484260383061,16.471470925933584,-0.042412512781170475,0.7883573787791708,-1.337757661589051
1.7307472812641218,16.323350297024174,-0.041810063789189764,0.7708071360567329,-1.3651845214860079
1.7228581206639735,16.178555718811396,-0.0412337320018438,0.7533463188146015,-1.3931720144511976
1.7150760997200107,16.037070374617315,-0.04068227793460757,0.7359730937546856,-1.4216091496521686
1.7073966117567672,15.898877785603833,-0.04015443746795562,0.7186857379661864,-1.4503846686347037
1.6998152924396326,15.763961789720536,-0.039648923765039305,0.7014826397527337,-1.4793867661779345
1.6923280239399532,15.632306520440974,-0.039164428863165776,0.6843623000321426,-1.50850280321325
1.6849309388283575,15.503896385174976,-0.03869962494310457,0.6673233343467828,-1.5376190102728546
1.6776204237574284,15.378716043236729,-0.03825316527720186,0.6503644755294936,-1.566620179838862
1.6703931229949547,15.256750383239044,-0.037823684854101716,0.6334845770777181,-1.5953893458577377
1.6632459418697356,15.137984499773427,-0.037409800674520065,0.6166826172972013,-1.6238074485678624
1.6561760501933058,15.022403669222992,-0.03701011170894972,0.5999577042863188,-1.651752982660423
1.6491808857230428,14.909993324540704,-0.03662319850434793,0.5833090818430275,-1.6791016266568213
1.6422581577349713,14.800739028808689,-0.0362476224227197,0.5667361363887065,-1.7057258512411488
1.6354058507782625,14.694626447375153,-0.03588192449000242,0.5502384050169412,-1.7314945041369822
1.6286222286879846,14.59164131834342,-0.035524623828712174,0.533815584790772,-1.7562723689684776
1.6219058389382337,14.491769421162523,-0.03517421564235039,0.5174675434292085,-1.779919695403363
1.615255517424428,14.394996543040158,-0.03482916871349687,0.5011943315430571,-1.8022916977501504
1.608670393771428,14.301308442866436,-0.03448792237071628,0.4849961966013716,-1.8232380190883766
1.602149897273395,14.210690812300157,-0.034148882871737216,0.4688735988331306,-1.842602157969915
1.5956937635821236,14.123129233628092,-0.033810419141643226,0.45282722929389546,-1.8602208547711987
1.589302042273161,14.038609133961558,-0.03347085779480464,0.4368580303538331,-1.8759234349425522
1.5829751054336771,13.957115735283313,-0.03312847735765881,0.4209672188908566,-1.8895311067509633
1.5767136574331009,13.878633999801234,-0.03278150159577415,0.4051563124994509,-1.900856211729543
1.5705187460574348,13.803148570004044,-0.03242809183229141,0.3894271590499052,-1.9097014270471189
1.564391775211498,13.730643702748974,-0.032066338124937116,0.3737819699508304,-1.915858920558133
1.558334519420944,13.661103196643534,-0.0316942491440545,0.35822335747484235,-1.9191094616152065
1.5523491403988137,13.59451031191637,-0.031309740562579166,0.3427543764952957,-1.919221494145452
1.546438205981235,13.530847681910096,-0.030910621727724106,0.3273785709391571,-1.9159501834576793
1.5406047117858488,13.470097215279733,-0.030494580328971017,0.31210002516992846,-1.9090364553941512
1.5348521060079898,13.412239987955438,-0.030059164701123506,0.296923420348946,-1.8982060566571455
1.5291843178484164,13.3572561239455,-0.02960176329438572,0.2818540955451305,-1.8831686796767617
1.5236057901699231,13.305124664141648,-0.029119580689754218,0.26689811291648363,-1.8636172159945772
1.5181215171196976,13.255823422483498,-0.028609609312619508,0.2520623255903457,-1.8392272312676714
1.512737087647155,13.209328829200704,-0.02806859566151314,0.23735444580750095,-1.8096567960533427
1.5074587361199747,13.165615761465183,-0.02749299936143788,0.22278310930324205,-1.7745468641985107
1.5022934016358827,13.124657362774254,-0.026878942576373892,0.20835792954862364,-1.7335224712588524
1.4972487982094562,13.0864248539213,-0.026222146122852112,0.1940895320614282,-1.6861951372234592
1.4923334988836752,13.05088734073313,-0.02551784678010625,0.1799895541298611,-1.632167011294817
1.4875570381341991,13.018011627180798,-0.02476068742490461,0.1660705885262708,-1.5710375032982413
1.482930038948238,12.987762047402107,-0.023944567164158624,0.15234604072311994,-1.5024134168866876
1.4784643740527796,12.96010033705323,-0.0230624317354033,0.13882985768610864,-1.4259239361246336
1.4741733755254025,12.934985573598397,-0.02210597381593634,0.12553607341741818,-1.341242196795698
1.470072114328532,12.912374226617995,-0.02106519667743609,0.11247810532364784,-1.248115516034981
1.4661777824724005,12.892220371835954,-0.01992777022921309,0.09966773448731667,-1.1464064549193076
1.4625102274494908,12.874476132710136,-0.018678072117206724,0.08711372999497867,-1.036146313589012
1.459092714189063,12.85909241249367,-0.01729575167676698,0.07482016702046271,-0.9176005995457766
1.4559530290682607,12.846019950311195,-0.015753565384312093,0.06278469805820559,-0.7913412167358014
1.4531251048847778,12.835210646382578,-0.014014057599718011,0.05099744855883554,-0.658311252349924
1.4506514692606394,12.826618905750294,-0.01202421212805449,0.03944192651785048,-0.5198552935494511
1.4485871223522808,12.820202366377124,-0.009705755328351473,0.02810059319972476,-0.3776753913675401
1.4470064252526291,12.815920571467025,-0.006933161510088475,0.016970932169752852,-0.23367023479746069
1.446018918243812,12.81372747499124,-0.003461649109039207,0.006114293891131084,-0.08963688140850257
