x,y,v_x,v_y,omega
2.375,32.48,0.0,3.1794871794871797,-2.8571428571428577
2.374075285978322,31.758572428870515,-0.008040991492854059,3.0937960477257045,-2.642751428544604
2.3714610248912837,31.056382080110012,-0.014691713611825672,3.012206984974306,-2.4526288241978196
2.3674503814191885,30.37252059653042,-0.020183447015089027,2.934414611369964,-2.283248504016791
2.3622881019053388,29.706146348398853,-0.024705940061863798,2.8601440680349963,-2.1316853478257887
2.356179129807494,29.056477862929544,-0.02841555644113483,2.7891471099589897,-1.995499796323167
2.349295547343694,28.422788080653838,-0.03144168237451533,2.7211988228732213,-1.8726466889474265
2.341782197325368,27.80439930913785,-0.03389179604571464,2.656094842483219,-1.7614030487282197
2.3337612581078857,27.20067876925492,-0.035855501497608015,2.5936489825857096,-1.6603105133412615
2.3253359835280745,26.61103464834302,-0.0374077557181406,2.533691199256946,-1.568129167922391
2.3165937733415913,26.034912589554306,-0.03861146329475613,2.4760658336883763,-1.4838003126779171
2.307608704224655,25.47179255857501,-0.039519572504689196,2.420630087870702,-1.4064162756698115
2.298443624115818,24.921186038403988,-0.040176776267810674,2.3672526962251386,-1.3351958134074493
2.2891518915348095,24.382633510573072,-0.04062089834965418,2.31581276317412,-1.26946396798092
2.279778825045131,23.855702187472936,-0.040884027647548386,2.266198742044457,-1.2086354972506108
2.2703629151233957,23.339983965616145,-0.040993449932759954,2.2183075349711334,-1.1522011841379263
2.2609368405365022,22.835093573952552,-0.04097241604022506,2.1720436968862042,-1.0997164769516579
2.251528323285573,22.340666894926066,-0.0408407774461174,2.1273187294310545,-1.0507920256522012
2.2421608497811842,21.85635943896171,-0.04061551389639288,2.0840504528677015,-1.0050857669255673
2.232854280807514,21.381844955603874,-0.04031117283117659,2.042162445896066,-0.9622962798108508
2.2236253687369616,20.91681416667464,-0.03994023647797103,2.001583544792926,-0.9221571878208543
2.21448819715815,20.46097360865146,-0.03951342942473807,1.9622473945390897,-0.8844324263517016
2.2054545554133225,20.01404457303039,-0.03903997705202293,1.924092045644131,-0.8489122282248469
2.196534258377003,19.57576213478734,-0.03852782326379751,1.887059591251969,-0.8154097073757073
2.187735420045235,19.14587426021101,-0.037983814403753376,1.8510958398465307,-0.783757942479469
2.179064688064311,18.724140986386246,-0.037413854995583244,1.8161500194992668,-0.7538074798297097
2.1705274451468504,18.310333665478986,-0.03682303993885999,1.7821745101290705,-0.7254241889454216
2.1621279823515325,17.904234267734097,-0.03621576697694789,1.7491246006960373,-0.6984874158668972
2.153869648401196,17.50563473776087,-0.035595832591193824,1.7169582686363758,-0.6728883884506078
2.1457549785505727,17.11433639926232,-0.03496651393596551,1.6856359791771178,-0.6485288356118127
2.1377858059643318,16.730149403874655,-0.03433063898786871,1.6551205024547202,-0.6253197887258908
2.1299633581078554,16.352892220232413,-0.0336906467206213,1.6253767466082736,-0.603180538550432
2.12228834027075,15.98239115977081,-0.03304863881942761,1.5963716052317447,-0.5820377252808345
2.11476100802315,15.618479936127294,-0.032406424203182,1.5680738177553544,-0.5618245428708833
2.1073812301365127,15.260999255314317,-0.03176555741974763,1.5404538414879327,-0.5424800416714342
2.100148543274963,14.909796434110973,-0.031127371811118666,1.5134837341933247,-0.523948515873345
2.0930621995730854,14.564725044366025,-0.030493008205209334,1.4871370461975288,-0.5061789642727051
2.0861333757962623,14.225645397694294,-0.029757633332382846,1.4613816205131898,-0.4861202482689786
2.0793719489826628,13.892423359240148,-0.029037382438048074,1.436201322566336,-0.46708341425474365
2.0727744145117275,13.564929246376689,-0.02833248252660687,1.411573571898521,-0.4490032468958382
2.066337226641613,13.243038438425248,-0.02764306417004288,1.387476932027059,-0.4318194805913589
2.060056819018827,12.926631121862325,-0.026969176028096477,1.3638910380853313,-0.4154763648573262
2.0539296220748646,12.61559205154424,-0.02631079739766111,1.3407965298980031,-0.399922272904186
2.047952077732136,12.309810326753816,-0.025667849060853246,1.3181749900187263,-0.3851093486272137
2.0421206517839017,12.009179180976652,-0.02504020266291864,1.2960088863044479,-0.3709931878107989
2.036431844263532,11.713595784407826,-0.024427688818560757,1.2742815186418759,-0.3575325498524061
2.030882198075883,11.422961058273973,-0.0238301041175153,1.2529769694785793,-0.34468909675075016
2.0254683061270713,11.137179500131857,-0.02324721717649941,1.2320800578441653,-0.33242715648473814
2.020186817157367,10.856159019373486,-0.022678773864408586,1.2115762965764518,-0.3207135082429287
2.0150344404547758,10.579810782230389,-0.022124501810294146,1.1914518524939444,-0.3095171872543792
2.0100079496033816,10.308049065626431,-0.021584114288788144,1.1716935092795917,-0.2988093072265326
2.0051041854002096,10.040791119280144,-0.021057313564880806,1.1522886328620385,-0.28856289861914036
2.000320058056815,9.777957035504542,-0.020543793768985,1.1332251390996977,-0.2787527611793094
1.995652548786547,9.51946962619521,-0.020043243363779776,1.1144914635901604,-0.26935532933519785
1.9910987108652507,9.265254306536402,-0.01955534725618753,1.0960765334429665,-0.2603485491977481
1.9866556702416953,9.01523898499067,-0.019079788600817972,1.0779697408677416,-0.2517117660537877
1.9823206257640593,8.769353959170008,-0.018616250335147033,1.060160918442352,-0.24342562135213433
1.97809084908015,8.527531817216364,-0.01816441648145373,1.0426403159371624,-0.23547195828898604
1.9739636842614932,8.289707344346677,-0.017723973245997292,1.0253985785818382,-0.22783373519156422
1.9699365471948755,8.055817434242655,-0.017294609941981762,1.0084267266705211,-0.22049494598118344
1.966006924779212,7.825801004988424,-0.016876019759441807,0.9917161364097357,-0.21344054706992965
1.9621757465535257,7.5996970141322535,-0.016438573507394912,0.9744055232091251,-0.22372514293220844
1.958442332967395,7.377559887175593,-0.016025892458959117,0.9572216677183457,-0.23630221840769045
1.9548009313951242,7.159360903484565,-0.0156384690390477,0.9401607991601627,-0.2510464464662018
1.9512456930232005,6.94507219210789,-0.0152766472385491,0.9232192997674288,-0.26783651004701203
1.9477707055188773,6.734666697414937,-0.014940635407739544,0.9063936975626039,-0.2865548132187316
1.944370022873909,6.5281181463331635,-0.01463051802676833,0.8896806596702249,-0.30708720381679805
1.9410376926498214,6.325401017065733,-0.014346266530514892,0.8730769861335158,-0.3293227063975955
1.9377677808340603,6.126490509176286,-0.014087749258712331,0.8565796042094952,-0.353153264396556
1.9345543945007324,5.931362514933401,-0.0138547405963131,0.8401855631199525,-0.37847349041810524
1.9313917024553438,5.739993591812173,-0.013646929363588653,0.8238920292385651,-0.4051804236182717
1.9282739540298397,5.552360936054555,-0.013463926510359246,0.8076962816972431,-0.43317329316634595
1.9251954961822884,5.368442357193654,-0.013305272164000155,0.7915957083975455,-0.4623532867902323
1.9221507890446392,5.1882162534501255,-0.013170442076426384,0.7755878024157422,-0.4926233234210832
1.919134420052076,5.011661587911139,-0.0130588535110821,0.7596701587928347,-0.5238878289563639
1.9161411167784943,4.838757865404048,-0.012969870607018312,0.7438404717036184,-0.5560525141565028
1.9131657585945463,4.669485109977934,-0.012902809253398503,0.7280965320017224,-0.5890241536784906
1.9102033872574231,4.503823842906577,-0.012856941504194575,0.7124362251405146,-0.6227103652298513
1.9072492165351107,4.341755061126037,-0.01283149955939196,0.6968575294728773,-0.6570193877979003
1.9042986409621772,4.183260216018997,-0.012825679335681328,0.6813585149361615,-0.691859857871572
1.9013472438192445,4.028321192456136,-0.012838643646342563,0.6659373421321964,-0.7271405825257116
1.898390804424134,3.8769202880020828,-0.012869525006791558,0.650592261816092,-0.7627703081798104
1.8954253048192649,3.7290401921898706,-0.012917428079027923,0.6353216148118264,-0.7986574837738463
1.8924469359372067,3.58466396576312,-0.012981431764955855,0.6201238323773006,-0.8347100170221549
1.8894521033243872,3.4437750197793484,-0.013060590955213374,0.6049974370467857,-0.8708350223109609
1.8864374325018176,3.3063570944607434,-0.013153937936695833,0.5899410439845624,-0.9069385586950677
1.8833997740413868,3.1723942376701473,-0.013260483458353981,0.5749533628901939,-0.9429253563228295
1.880336208436807,3.041870782879883,-0.013379217451036202,0.5600332005033978,-0.9786985294743928
1.8772440508497341,2.91477132648901,-0.013509109393075446,0.5451794637650688,-1.0141592742346737
1.874120855814003,2.791080704330433,-0.013649108308934356,0.5303911637008188,-1.049206548637979
1.8709644219843788,2.670783967192804,-0.013798142383450588,0.5156674201046583,-1.083736732913936
1.8677727970208475,2.5538663551627288,-0.01395511816899361,0.5010074671133932,-1.1176432672329693
1.8645442827053502,2.4403132705703072,-0.014118919357069815,0.4864106597772314,-1.150816264092759
1.861277440395145,2.330110249294755,-0.014288405079498691,0.47187648174929797,-1.183142092204323
1.8579710969258338,2.223242930156374,-0.014462407697119439,0.45740455423662013,-1.2145029284279023
1.854624351087681,2.119697022085685,-0.014639730025949264,0.44299464637806507,-1.2447762739765855
1.8512365808114064,2.0194582687194753,-0.014819141941656129,0.42864668724113625,-1.273834430753775
1.8478074512144254,1.9225124100258526,-0.014999376292960859,0.414360779659942,-1.301543933326998
1.844336923675796,1.8288451405052335,-0.015179124042946386,0.40013721617152137,-1.3277649316783122
1.8408252661282987,1.7384420634505453,-0.015357028543986904,0.3859764973475094,-1.3523505195317023
1.8372730647795052,1.651288640676313,-0.015531678836825918,0.3718793528632105,-1.3751460027731046
1.8336812375008806,1.567370137041923,-0.01570160184686675,0.3578467656966953,-1.3959881022988196
1.8300510491554804,1.4866715589975747,-0.01586525333052663,0.3438799999063349,-1.4147040856279456
1.826384129171363,1.409177586271376,-0.01602100740092972,0.3299806324953896,-1.4311108219056563
1.8226824917102966,1.33487249569189,-0.016167144434430087,0.31615058993493567,-1.4450137556720044
1.818948558830817,1.2637400760019233,-0.01630183712626235,0.3023921899778275,-1.456205796219816
1.8151851871026228,1.1957635323677245,-0.016423134423253084,0.2887081894500033,-1.4644661218755686
1.8113956981976465,1.1309253791258556,-0.016528943011322187,0.27510183874016436,-1.4695589026404459
1.8075839140646428,1.0692073191444855,-0.016617005971317954,0.26157694370651713,-1.4712319511092826
1.8037541973927627,1.0105901080184196,-0.0166848781319883,0.24813793565056627,-1.4692153216010535
1.7999114981912916,0.9550534011885787,-0.01672989753297838,0.2347899498263138,-1.4632198926984679
1.7960614074666772,0.902575582011238,-0.01674915224627765,0.22153891258534741,-1.4529359914404303
1.7922102191786422,0.8531335688560979,-0.016739441562721703,0.20839163658978802,-1.4380321519905541
1.7883650019279014,0.8067025995746988,-0.016697230182850773,0.19535592237889396,-1.4181541532612665
1.7845336822069526,0.7632559922929119,-0.016618593477573454,0.182440662680131,-1.392924556866934
1.780725141595898,0.7227648826624673,-0.016499150966378925,0.16965594280200352,-1.3619430808238668
1.7769493311131985,0.6851979397930705,-0.016333983665791134,0.15701312562752612,-1.324788312730886
1.7732174072152227,0.6505210665841545,-0.01611752849051911,0.14452490227607648,-1.2810215126629225
1.7695418959806117,0.6186970958239968,-0.015843438766968546,0.13220527824703737,-1.2301936123420798
1.765936895327946,0.5896855022595773,-0.015504392995341874,0.12006944840007411,-1.1718570207981638
1.7624183305638121,0.563442164199806,-0.015091822344952502,0.10813349125009755,-1.105584530564993
1.7590042875968126,0.5399192275407927,-0.014595507802871987,0.09641378404566163,-1.0309984783790616
1.755715463193055,0.5190651512086184,-0.014002965273280986,0.08492601014716991,-0.9478142260770257
1.7525757966291766,0.5008250440598481,-0.013298483108269536,0.07368361723344029,-0.8559025574539589
1.7496133883946716,0.48514143001745325,-0.012461588496120382,0.06269563530913758,-0.755374619127452
1.7468618798710414,0.4719555743597965,-0.011464572578927228,0.05196397910524651,-0.6466881944475358
1.7443625840631811,0.4612094099745576,-0.010268434445944573,0.041480928592465244,-0.5307613953734412
1.7421678779980705,0.4528478035067067,-0.008815966120234768,0.031228692867080375,-0.40905525210980326
1.7403469037801025,0.4468201945999013,-0.007018592296876261,0.021185297626904125,-0.2835529858837228
1.73899648229151,0.4430789965514208,-0.0047242032561033796,0.011346859316414607,-0.1565417128631111
1.7382703083173827,0.4415658300749783,-0.0015903530406539577,0.001811110043953474,-0.030139291245064287
