x,y,v_x,v_y,omega
2.375,32.48,0.0,2.2564102564102564,-3.7142857142857144
2.3744039681365865,32.03307363075336,-0.005960318634135047,2.212853436056135,-3.5324726901113106
2.3726856553142786,31.594727235814393,-0.011222809588944189,2.1706105133335023,-3.36351323550776
2.369977013634129,31.16470474005892,-0.015863607212554063,2.129614444221252,-3.2061995064313327
2.3663956706563267,30.7427629993972,-0.01994982256546616,2.089802962395939,-3.059459865954709
2.362046615428519,30.328670891320183,-0.023540729712608142,2.051118118374237,-2.9223412207715405
2.3570236645781826,29.922208491838727,-0.026688778790757907,2.013505876440298,-2.793993940228591
2.351410740306461,29.523166328155003,-0.02944046392645941,1.9769157603969576,-2.6736589370064388
2.345282987010512,29.131344698034205,-0.03183706903302827,1.9413005408110153,-2.5606565644632937
2.338707749059901,28.74655304818112,-0.033915310473083125,1.9066159577198332,-2.454377046496062
2.3317454287811135,28.36860940502872,-0.035707892314792294,1.8728204738041416,-2.354272204824267
2.3244502408228094,27.997339852261597,-0.0372439872682471,1.8398750538671393,-2.2598482883616997
2.3168708766725064,27.632578050161264,-0.0385496542347837,1.807742967136178,-2.17065974172959
2.3090510910852666,27.27416479250225,-0.03964820163761378,1.7763896094539293,-2.086303776473807
2.301030220496534,26.921947597269185,-0.040560504249715065,1.7457823428767558,-2.0064156303404146
2.292843642068144,26.575780327924594,-0.041305280034183045,1.7158903505691279,-1.9306644179524655
2.284523180813174,26.23552284234868,-0.04189933251551928,1.6866845051900268,-1.858749491138115
2.2760974712246393,25.901040666907406,-0.04235776336982372,1.658137249222689,-1.7903972395594698
2.2675922789649183,25.572204693393886,-0.04269415922738926,1.6302224859125227,-1.725358272641074
2.2590307874323248,25.248890896836905,-0.04292075609854352,1.6029154796572882,-1.6634049324641482
2.25043385338815,24.93098007238669,-0.04304858434320591,1.576192764844871,-1.604329094573989
2.2418202352847607,24.618357589675988,-0.043087596690688276,1.550032062262127,-1.5479402197833323
2.233206797469105,24.31091316321904,-0.04304678146586923,1.5244122023073352,-1.494063625239136
2.2246086930344706,24.00854063755511,-0.04293426288047215,1.4993130543319841,-1.442538947413503
2.216048657029134,23.711140463354816,-0.042666097172894484,1.4746886876709677,-1.3904043300412698
2.2075465905736515,23.41861669836379,-0.04235456738192947,1.4505489622393177,-1.3406736548984377
2.1991106592991096,23.13087415933045,-0.042004745363488506,1.4268764280940633,-1.2932074180640196
2.190748064196117,22.84782107205273,-0.041621205666439565,1.4036544446831225,-1.2478757456933849
2.182465136140501,22.56936891425682,-0.041208074889718053,1.3808671332760145,-1.204557623426348
2.17426742106582,22.295432267653062,-0.040769075857097194,1.358499332761551,-1.1631401957415846
2.1661597567609254,22.025928678523783,-0.04030756719184468,1.3365365585312237,-1.123518128164173
2.158146342161409,21.760778526251237,-0.03982657880332467,1.3149649641942514,-1.0855930260273279
2.1502307999074257,21.499904899242367,-0.039328843736503964,1.2937713058944809,-1.049272904186324
2.142416232855572,21.243233477750827,-0.038816826782033506,1.272942909020915,-1.0144717026951924
2.1347052751575655,20.990692423136444,-0.03829275019803172,1.2524676371229158,-0.9811088439960653
2.1271001384523642,20.742212273138314,-0.03775861685398227,1.2323338628583587,-0.9491088276466008
2.1196026536598165,20.497725842770635,-0.03721623107149449,1.212530440818457,-0.9184008590308936
2.1122143088121277,20.257168130480107,-0.036667217405391424,1.1930466820868282,-0.8889185088707392
2.1049362833134775,20.020476229231143,-0.0361130375811125,1.1738723304028356,-0.8605994006831331
2.097769478977341,19.787589242209812,-0.035555005780252835,1.1549975398104493,-0.833384923621738
2.0907145481548377,19.55844820286037,-0.03499430244478123,1.1364128536839926,-0.8072199683992716
2.0837719192351876,19.332995998988842,-0.034431986751718296,1.1181091850312688,-0.7820526842183342
2.076941819770666,19.11117730068743,-0.03386900789349612,1.10007779798283,-0.75783425484353
2.070224297452858,18.892938491850785,-0.0333062152845867,1.0823102903836315,-0.7345186921308404
2.063619239144195,18.67822760507141,-0.0327443678020398,1.0647985774101028,-0.7120626454936935
2.057126388148381,18.466994259716216,-0.03218414215610413,1.047534876141828,-0.6904252259313101
2.0507453598850764,18.25918960299977,-0.031626140476939894,1.0305116910226344,-0.6695678433757074
2.0444756561179416,18.054766253882406,-0.031070897194407525,1.013721800150986,-0.6494540562309317
2.038316677870511,17.853678249632885,-0.030518885279901407,0.9971582423442316,-0.6300494320832217
2.0322716111439543,17.656060678539557,-0.02993178198566575,0.979017468589048,-0.6469580558739537
2.0263409149759704,17.462059584927225,-0.029375179694172658,0.960993467534288,-0.6657502653832974
2.0205185166638984,17.271651935105503,-0.028848803426547224,0.9430830306829171,-0.686308736773932
2.014798407602059,17.08481532422855,-0.028352287191843708,0.9252830780866261,-0.7085189767589869
2.0091746606853875,16.90152795107345,-0.027885181974871467,0.9075906534643562,-0.7322690689500473
2.00364144618053,16.721768593751843,-0.027446963073708412,0.8900029197517199,-0.7574494266232821
1.9981930461899777,16.54551658626992,-0.027037036831811377,0.8725171550675301,-0.7839525508981445
1.9928238678262256,16.37275179585453,-0.026654746805709017,0.8551307490863655,-0.8116727933374907
1.9875284552050978,16.20345460096501,-0.026299379405567914,0.8378411998088239,-0.8405061219853153
1.9823015003602984,16.03760586991174,-0.02597016904242686,0.8206461107238731,-0.8703498898585513
1.9771378531747987,15.8751869400033,-0.025666302812569878,0.8035431883605296,-0.9011026049023627
1.972032530418909,15.716179597144343,-0.02538692474632808,0.7865302402290224,-0.9326637004038709
1.9669807239797223,15.560566055805975,-0.02513113964553727,0.7696051731546615,-0.9649333048369897
1.9619778083620782,15.408328939289419,-0.024898016530906,0.752765992010881,-0.9978120100806326
1.9570193475372233,15.25945126020219,-0.024686591717641176,0.7360107988613988,-1.031200636913555
1.9521011012119784,15.11391640106353,-0.024495871534808058,0.7193377925251904,-1.0649999966409625
1.9472190305883936,14.971708094952803,-0.02432483470104176,0.7027452685820731,-1.0991106476501622
1.9423693036816545,14.832810406110475,-0.024172434366348496,0.6862316198411899,-1.1334326456242565
1.9375483002623388,14.697207710396391,-0.02403759982680756,0.6697953372996662,-1.1678652860634378
1.9327526164880604,14.564884675504,-0.023919237915976527,0.6534350116242569,-1.2023068376720198
1.927979069289095,14.435826240822074,-0.02381623407367852,0.6371493351950055,-1.2366542650650723
1.9232247005727698,14.310017596826881,-0.02372745308957388,0.6209371047569222,-1.270802939130552
1.9184867813122675,14.187444163877831,-0.023651739515448543,0.6047972247335672,-1.3046463332503038
1.9137628155870783,14.06809157027794,-0.023587917736443156,0.588728711265352,-1.3380757034354838
1.909050544644689,13.951945629446854,-0.02353479168745022,0.5727306970455057,-1.3709797502682988
1.9043479510562873,13.838992316038485,-0.023491144196566418,0.5568024370381822,-1.4032442603622242
1.8996532630433567,13.729217740817038,-0.023455735932740904,0.5409433151763031,-1.4347517248573745
1.8949649590571287,13.622608124084238,-0.02342730392953751,0.5251528521516905,-1.465380932257574
1.8902817726990602,13.519149767426363,-0.02340455965114897,0.509430714427064,-1.4950065326932707
1.885602698077908,13.418829023521774,-0.023386186560372075,0.4937767246188444,-1.5234985704638848
1.8809269957077641,13.32163226371772,-0.02337083714106639,0.4781908734216827,-1.550721981481273
1.8762541990617025,13.227545843048507,-0.02335712931954912,0.46267333327047505,-1.5765360520132516
1.8715841219077203,13.136556062325102,-0.023343642220272864,0.44722447396356824,-1.6007938349285147
1.8669168665676126,13.04864912687854,-0.02332891118080514,0.43184488050203473,-1.6233415194955076
1.8622528332555974,12.963811101484907,-0.023311421939346363,0.4165353734343071,-1.6440177507226066
1.8575927306722142,12.882027860938194,-0.023289603894486473,0.40129703203283806,-1.6626528942957466
1.852937588050644,12.803285035668,-0.023261822321213797,0.3861312206691122,-1.6790682434453184
1.8482887688776415,12.7275679517217,-0.023226369408812987,0.37103961879391834,-1.6930751646614886
1.8436479865403137,12.654861564345417,-0.0231814539644642,0.356024254968888,-1.704474180226543
1.8390173221838682,12.585150384305642,-0.023125189599991842,0.3410875454288721,-1.713053987260029
1.8343992451051991,12.51841839599513,-0.023055581186697132,0.3262323376762334,-1.7185904156865257
1.8297966360543176,12.454648966266781,-0.022970509322117794,0.3114619596072486,-1.7208453316800787
1.8252128138721888,12.39382474284291,-0.022867712499170856,0.29678027463148215,-1.7195654993498433
1.820651565962605,12.335927541065509,-0.022744766596668336,0.28219174314251455,-1.7144814226220977
1.8161171831817828,12.280938217701742,-0.02259906121155314,0.26770149049514436,-1.7053062027578665
1.811614499839334,12.228836530523907,-0.022427772212934433,0.25331538128320696,-1.691734466610911
1.8071489396487435,12.179600982484786,-0.022227829692972288,0.2390400991079879,-1.673441449288849
1.8027265686611875,12.13320864956873,-0.021995880182586934,0.2248832300525737,-1.6500823562126519
1.798354156489884,12.08963499190899,-0.021728241530450266,0.21085334654480892,-1.6212921892032228
1.7940392475254847,12.048853648661662,-0.02142084811353988,0.19696008592847924,-1.586686306943343
1.7897902444244693,12.01083621862059,-0.0210691828966148,0.18321421448224545,-1.545862112736205
1.785616507032278,11.975552030942445,-0.020668191025298533,0.16962766229918874,-1.4984024363285673
1.7815284712599062,11.942967914043937,-0.02021216669841967,0.15621350668588135,-1.4438814198970111
1.777537794556759,11.913047976296543,-0.019694600333052557,0.14298587078806582,-1.3818740514833907
1.7736575379823647,11.885753420279055,-0.01910796541089045,0.12995968938679825,-1.311970928515106
1.7699024002267114,11.861042423794014,-0.01844341214564295,0.11715027546361388,-1.2338003747824076
1.7662890274550178,11.838870136056052,-0.01769031557129294,0.10457260191601829,-1.1470606103066765
1.7628364364170857,11.819188855720824,-0.016835594808029104,0.09224020143625829,-1.0515650718672578
1.7595666097280498,11.801948475014346,-0.01586267208232849,0.08016360562853025,-0.947303679792912
1.7565053560628543,11.787097280667606,-0.014749864569626788,0.06834833783886052,-0.8345207561708973
1.7536835818798142,11.774583174109765,-0.013467877260775073,0.05679272773954004,-0.7138045269364833
1.7511392120076885,11.764355265129858,-0.011975821460482407,0.04548636205954357,-0.5861712656062291
1.7489201743111282,11.756365528405706,-0.010214555505117896,0.03441100518197196,-0.45310826089980677
1.7470893169728166,11.750569657684181,-0.008094017877999935,0.023547702033281978,-0.31651948013994485
1.745733705176899,11.7469249932169,-0.0054621000811736885,0.012898942639542332,-0.17851218355909837
1.7449890217468784,11.745378397585622,-0.0019847342190354106,0.002567013673257212,-0.04100358827129025
