x,y,v_x,v_y,omega
2.375,32.48,0.0,3.0769230769230766,-4.6938775510204085
2.373799478478804,31.841734111728645,-0.011433538297103293,3.001799668518381,-4.380044545809533
2.3703828685587065,31.21890488218894,-0.021105603799064402,2.929907279478797,-4.097715091969967
2.3650927134956534,30.610857232772208,-0.02927682537286893,2.8610227149662775,-3.8427981479964757
2.3582212180635316,30.01698069435076,-0.03616598826638775,2.7949443176189317,-3.6118306422970625
2.350018258483742,29.43670517756439,-0.04195743630303948,2.7314891755845934,-3.4018676753952226
2.3406979894298363,28.869497280320463,-0.0468070308770123,2.670490798167097,-3.2103941842447377
2.3304443186664034,28.31485704441659,-0.05084697639377813,2.6117971628221635,-3.035253430144828
2.3194154625219503,27.772315090981895,-0.054189748791489994,2.555269060365414,-2.874588772063859
2.307747751385219,27.24143007801647,-0.05693130965357099,2.50077868216245,-2.7267960026689844
2.29555882034826,26.7217864338036,-0.059153747841271184,2.448208405579142,-2.5904841350392633
2.2829502935418513,26.21299232816818,-0.060927459838812696,2.397449743329649,-2.4644429896755833
2.2700100498250304,25.714677850027385,-0.06231295651186604,2.3484024294398202,-2.347616283402585
2.256814140974173,25.226493364840813,-0.06336236587725051,2.3009736199561104,-2.239079192257249
2.2434284203771617,24.748108029720907,-0.06412068742761805,2.2550771907096467,-2.1380195698540496
2.229909929727429,24.27920844733749,-0.064626842569839,2.2106331177038827,-2.043722165903175
2.2163080827624904,23.819497442511413,-0.06491455709624165,2.1675669282587173,-1.9555553175291964
2.2026656782661065,23.36869294767086,-0.0650131047740791,2.1258092130799096,-1.8729596869776768
2.18901976901585,22.926526985236947,-0.06494793570455507,2.0852951910525968,-1.7954386993507174
2.175402408847023,22.492744736589742,-0.06474120876046587,2.045964319873136,-1.722550397826709
2.1618412963149742,22.067103688599243,-0.06441224392571006,2.0077599467030596,-1.6539004849345358
2.148360330410068,21.649372849835412,-0.06397790754958717,1.9706289939048556,-1.5891363595823864
2.134980091285706,21.23933202953305,-0.06345294125385906,1.9345216756414607,-1.5279419927800102
2.121718256898949,20.836771173210042,-0.06285024338192224,1.8993912417205097,-1.4700335119653423
2.108589964754811,20.441489749545116,-0.06218111037177571,1.8651937455645002,-1.4151553858192347
2.0956081265247093,20.05329618373203,-0.06145544420062365,1.8318878336077729,-1.3630771194193085
2.0827837021248783,19.6720073330568,-0.06068193103585995,1.7994345537753516,-1.31359038432857
2.0701259388498774,19.297448000905497,-0.05986819539272024,1.767797180998973,-1.2665065203560844
2.057642580325646,18.92945048581256,-0.05902093340948058,1.7369410579814002,-1.221654355758246
2.0453400493482654,18.567854162512425,-0.05814602827986146,1.7068334496389248,-1.1788783009632051
2.0332236080860735,18.212505092267147,-0.05724865040767787,1.677443409839905,-1.1380366778129136
2.0212974986256644,17.863255660015938,-0.056333344453363625,1.6487416592192274,-1.0990002520804694
2.009565066421331,17.519964236134093,-0.055404105111717915,1.6207004729888002,-1.0616509418396238
1.9980288688503167,17.18249486080275,-0.05446444318365401,1.5932935777859125,-1.0258806783042254
1.9866907707724124,16.85071694918096,-0.05351744327257897,1.5664960567073194,-0.9915903991527656
1.975552028733517,16.524505015740893,-0.05256581424070822,1.5402842617695187,-0.9586891572169536
1.9646133652316726,16.203738416277826,-0.051611933395905654,1.5146357331168143,-0.9270933298332618
1.953875034274857,15.888301106241709,-0.050657885240435074,1.4895291243700042,-0.8967259162064071
1.9433515165409063,15.578083500983091,-0.04956609317814274,1.464924259045412,-0.8635677444563845
1.933055502207246,15.272980039652438,-0.048491186190049926,1.4408229917227109,-0.8319778269504685
1.9229833720061975,14.972886908955875,-0.04743386334374486,1.4172068244350375,-0.8018629890169956
1.9131313760080277,14.677704088318983,-0.04639466997215802,1.3940581340115554,-0.7731366424571
1.9034956638174425,14.38733517163151,-0.045374017557225574,1.3713601201548662,-0.7457182463160229
1.8940723108491269,14.101687199510181,-0.04437220118863722,1.3490967571911057,-0.7195328176686987
1.884857341159853,13.820670501340114,-0.04338941489968551,1.3272527491904966,-0.6945104872477884
1.8758467472553817,13.544198546415739,-0.04242576514289714,1.3058134881844958,-0.670586095331097
1.867036507238788,13.27218780355711,-0.041481282634188064,1.2847650152310373,-0.6476988238210291
1.858422599621877,13.004557608627128,-0.04055593276496216,1.264093984102109,-0.6257918609011992
1.8500010160821545,12.741230039420635,-0.03964962475620492,1.243787627388284,-0.6048120950529108
1.8417677724135553,12.482129797437384,-0.03876221970664716,1.2238337248331497,-0.5847098355641387
1.833718917889216,12.22718409608856,-0.03789353766801094,1.2042205737270686,-0.565438556972085
1.8258505432283765,11.976322554920742,-0.03704336386379447,1.1849369612045506,-0.546954665152635
1.8181587873365441,11.729477099472458,-0.036211454153656335,1.165972138302924,-0.5292172830107137
1.8106398429679529,11.486581866407182,-0.03539753983292733,1.1473157956520965,-0.512188053938596
1.8032899614416809,11.247573113592715,-0.03460133184585467,1.1289580406761501,-0.4958309613980817
1.7961054565272923,11.012389134820989,-0.03382252448165325,1.1108893761974303,-0.48011216315007915
1.7890827076022369,10.780970178884267,-0.033060798614113776,1.093100680342785,-0.464999838804138
1.7822181621712399,10.553258372744,-0.032315824538238794,1.0755831876597675,-0.4504640494930597
1.775508337827369,10.32919764854713,-0.031587264451006715,1.0583284713580443,-0.43647660859586196
1.7689498237251462,10.108733674261746,-0.030874774617782222,1.0413284265979874,-0.42301096253777376
1.7625392816278744,9.891813787719727,-0.03017800726099644,1.0245752547545863,-0.4100420807900803
1.7562734465841103,9.678386933868502,-0.029496612203423613,1.008061448590416,-0.3975463542768266
1.750149127281817,9.468403605047474,-0.028830238294606216,0.9917797782765083,-0.3855015014707588
1.7441687272141806,9.261956530980182,-0.028125952825742682,0.9743828318881589,-0.40072996466680727
1.738332451577218,9.059150654053056,-0.027457624669137606,0.9571017102749563,-0.41792719434249054
1.7326327897042368,8.859961991661049,-0.02682486935925462,0.9399331696489284,-0.4369793914474249
1.7270623205850661,8.664367228967297,-0.02622721748999091,0.9228740941010968,-0.4577758985978056
1.7216137298702017,8.472343692613265,-0.025664122651573973,0.9059214902230317,-0.4802089521376608
1.716279825276652,8.283869325513823,-0.02513496871556434,0.8890724821526064,-0.504173442285363
1.7110535505274318,8.098922662650114,-0.024639076515105645,0.8723243070255713,-0.5295666803959312
1.7059279979471667,7.917482807776636,-0.024175709963609588,0.8556743108170864,-0.5562881723980366
1.7008964198275942,7.739529410962064,-0.02374408165136732,0.8391199445598098,-0.5842393974864901
1.6959522386688088,7.565042646885889,-0.023343357956112313,0.8226587609275638,-0.6133235911664298
1.691089056394886,7.3940031938150135,-0.02297266370029559,0.806288411176018,-0.6434455317544477
1.6863006626359565,7.226392213185935,-0.022631086384747034,0.7900066424342563,-0.674511329444458
1.6815810421628847,7.062191329719262,-0.022317680025461212,0.7738112953435824,-0.7064282170420778
1.67692438155538,6.901382611993725,-0.022031468617439442,0.7577003020424693,-0.7391043414605009
1.672325075179633,6.743948553406845,-0.021771449246817818,0.7416716844992299,-0.7724485550530087
1.6677777305473787,6.589872053448762,-0.02153659486989054,0.725723553196795,-0.8063702058320691
1.6632771731246572,6.439136399214515,-0.021325856775075824,0.7098541061769863,-0.8407789255919991
1.658818450655433,6.2917252470781655,-0.021138166741343986,0.6940616284549003,-0.8755844149109268
1.6543968370626605,6.147622604449559,-0.020972438904109755,0.6783444918175283,-0.9106962239577083
1.650007835987338,6.006812811531137,-0.020827571337057777,0.6627011550245842,-0.9460235279698797
1.6456471840245883,5.86928052298801,-0.020702447355794885,0.6471301644337589,-0.9814748961989118
1.6413108537148395,5.7350106894393456,-0.020595936546576557,0.6316301550773459,-1.016958053038176
1.6369950563477853,5.603988538672866,-0.02050689552060704,0.6161998522224589,-1.0523796299562072
1.6326962446370108,5.476199556476942,-0.020434168391529926,0.6008380734530068,-1.0876449067521368
1.6284111153239795,5.351629466975957,-0.02037658697067181,0.5855437313182879,-1.1226575405305526
1.6241366117715688,5.230264212344466,-0.02033297067133608,0.5703158366006661,-1.1573192806585295
1.6198699266095367,5.112089931763737,-0.020302126109922426,0.5551535022634243,-1.1915296678172365
1.6156085044972737,4.997092939470356,-0.020282846387820786,0.5400559481497255,-1.2251857150935377
1.6113500450729992,4.885259701730575,-0.020273910033840693,0.5250225065148457,-1.2581815688728408
1.6070925061633017,4.776576812555415,-0.020274079582325806,0.5100526284866727,-1.2904081470929833
1.6028341073326726,4.671030967950081,-0.020282099756998028,0.4951458915641404,-1.3217527522007886
1.5985733338595738,4.56860893846644,-0.02029669522489519,0.48030200828005126,-1.352098655919728
1.594308941233726,4.469297539798774,-0.020316567878418044,0.4655208361739017,-1.381324652692158
1.5900399602788724,4.373083601130084,-0.020340393596378577,0.4508023892421861,-1.4093045784084914
1.5857657030164265,4.279953930898511,-0.020366818426916077,0.43614685105849305,-1.4359067907874907
1.581485769398363,4.18989527961007,-0.02039445412606979,0.4215545897838173,-1.460993607540688
1.5772000550526997,4.102894299274265,-0.02042187297548456,0.40702617531909985,-1.4844206982610173
1.5729087602022238,4.018937498982606,-0.02044760179095302,0.39256239888717825,-1.5060364258526562
1.5686123999370762,3.9380111960856077,-0.020470115019976552,0.37816429536994955,-1.525681133312236
1.5643118160448362,3.8601014623511105,-0.02048782681088106,0.3638331687681182,-1.543186371848649
1.5600081906283305,3.7851940644050543,-0.020499081917743998,0.34957062119431637,-1.5583740667878194
1.5557030617721717,3.713274397665028,-0.020502145283767977,0.33537858585355496,-1.5710556185919906
1.5513983415548016,3.6443274128774554,-0.020495190119758686,0.32125936450429643,-1.5810309378352883
1.5470963367446604,3.5783375342625945,-0.02047628426253613,0.3072156699229652,-1.5880874154144038
1.5427997725684857,3.515288568160674,-0.020443374558176165,0.29325067390485465,-1.5919988330621915
1.5385118199987113,3.455163600963111,-0.020394268963483845,0.27936806131002057,-1.5925242249895937
1.5342361270785285,3.397944885014624,-0.02032661599063771,0.26557209058033693,-1.58940671009937
1.5299768548917854,3.3436137111010886,-0.020237881025966253,0.2518676609771605,-1.582372326984
1.5257387188973905,3.2921502661199185,-0.02012531892065112,0.2382603864625627,-1.571128922707835
1.5215270364947648,3.2435334746047424,-0.019985942056735245,0.2247566755867491,-1.5553651738826293
1.517347781884777,3.1977408230066615,-0.019816482800293644,0.21136381582355795,-1.5347498586773312
1.513207649566075,3.1547481661159296,-0.01961334880639148,0.19809005932628643,-1.5089315567619785
1.5091141282025693,3.114529515884712,-0.019372568941280557,0.18494470478053693,-1.4775390387487544
1.5050755871835735,3.0770568143991426,-0.01908972647772647,0.17193816651059943,-1.4401827286297484
1.5011013790873937,3.0422996951624555,-0.01875987443827154,0.15908201669593447,-1.396457797212868
1.4972019626380924,3.010225240641198,-0.018377425078886633,0.14638897874462511,-1.3459496912262774
1.4933890529189013,2.980797749810197,-0.017936000818168863,0.13387283869349387,-1.2882432443352825
1.4896758090732052,2.9539785379957912,-0.01742822628370035,0.1215482262056198,-1.2229369728172683
1.4860770752952233,2.9297258035228175,-0.01684542874469908,0.10943019734652529,-1.149664730444169
1.4826096998880678,2.907994612115033,-0.016177194180591218,0.09753353034667195,-1.0681275234523908
1.4792929716024226,2.888737070097104,-0.015410694254124464,0.0858716317288246,-0.978138754309857
1.4761492355693666,2.871902777344541,-0.01452964891783674,0.07445496591463789,-0.8796859290182185
1.4732047879492125,2.857439659275549,-0.013512709369346983,0.06328901569479659,-0.7730097643138317
1.4704912076305319,2.8452952477731124,-0.012330912713326031,0.052372046233187364,-0.658695593963249
1.4680473840621953,2.83541836240072,-0.010943597461306511,0.04169352874196347,-0.537759280989051
1.4659227006753321,2.827760847531536,-0.009291482413581827,0.031235184297893126,-0.4116894185077051
1.4641823565135719,2.8222783916851526,-0.007283223888897139,0.0209786809057552,-0.28238566955728206
1.4629177036952454,2.8189279782161876,-0.0047610886665926805,0.010930018798684759,-0.1519278158209084
1.46227523954364,2.817653058213544,-0.0013576175391742536,0.0012120764646023543,-0.022164228076416492
