x,y,v_x,v_y,omega
2.375,32.48,0.0,2.1025641025641026,-3.836734693877551
2.374437994973579,32.063402925526,-0.005620050264210357,2.0634066421758748,-3.6593158921809668
2.372814742703683,31.654526693368055,-0.01061247243474918,2.0253556794035728,-3.4936175696744263
2.370249298282937,31.25315539989651,-0.015041971772713148,1.9883572553118822,-3.338603528103852
2.366848500873551,30.859083563168987,-0.018966002321143847,1.9523611119633264,-3.193348034020645
2.362708333499032,30.472115417391475,-0.022435671424047437,1.917320345811812,-3.0570222281556676
2.3579151145213624,30.092064272471177,-0.02549651835264996,1.8831911033911592,-2.9288824271308895
2.352546544026758,29.718751930838543,-0.028189186593390186,1.8499323129351823,-2.808260022626884
2.3466726247709797,29.352008154876607,-0.03055000596439266,1.8175054466841856,-2.694552734172228
2.340356474375297,28.99167017925512,-0.03261149799243379,1.7858743095306615,-2.5872170130125185
2.33365504299991,28.63758226326386,-0.034402815761439776,1.755004850381953,-2.4857614280973572
2.3266197486608022,28.289595278905054,-0.03595012762963767,1.7248649932061153,-2.389740892671629
2.3192970406255156,27.947566331063705,-0.037276952723229916,1.6954244852073794,-2.298751612499343
2.3117288998646144,27.611358406545826,-0.03840445488578212,1.666654759971405,-2.212426655343852
2.3039532843016173,27.28084004917418,-0.039351700744187305,1.6385288137450285,-2.130432056732802
2.2960045255567496,26.955885058471285,-0.040135886704489365,1.6110210932839542,-2.0524633898478837
2.287913682988043,26.63637220975035,-0.04077253898257594,1.584107393925408,-1.9782427380746213
2.279708860071717,26.322184993684846,-0.04127569018068519,1.5577647667296175,-1.9075160177073553
2.271415487511583,26.0132113736428,-0.0416580354206545,1.5319714336908292,-1.840050605835949
2.2630565769072573,25.709343559258638,-0.041931070622601783,1.5067067101507936,-1.7756332347914803
2.25465294832899,25.4104777948776,-0.042105215160070555,1.4819509336595775,-1.7140681198995924
2.2462311851128622,25.11651731154122,-0.04211241700120694,1.4576538997042594,-1.652531343159491
2.2378145424253817,24.827368855846903,-0.042054009873597704,1.4338306572388952,-1.5938113492539288
2.2294154710212926,24.54293937075501,-0.04193670416729452,1.410464193680024,-1.537745739875877
2.221045142113847,24.26313912283348,-0.04176658490716282,1.387538285535311,-1.4841832581402916
2.212713566426655,23.987881549104557,-0.0415491719647561,1.365037451753917,-1.4329829017946962
2.2044297018219003,23.71708311288701,-0.041289474082791114,1.3429469104215541,-1.3840131165912437
2.196201550673972,23.450663167993362,-0.04099203739649096,1.3212525385149203,-1.3371510617107503
2.188036248028876,23.188543830696005,-0.04066098905446867,1.2999408344586345,-1.2922819400371277
2.179940141476357,22.93064985892485,-0.04030007647072067,1.2789988832529604,-1.2492983868770193
2.171918863561562,22.676908538203257,-0.03991270267723279,1.2584143239629448,-1.2080999114192181
2.163977397474595,22.42724957386902,-0.039501958192434926,1.2381753193794536,-1.1685923858443867
2.15612013667803,22.18160498916304,-0.03907064977321956,1.2182705276802892,-1.1306875775386316
2.1483509390630515,21.939909028801477,-0.03862132637656272,1.198689075935373,-1.094302720344029
2.140673176163377,21.70209806767653,-0.03815630262018188,1.1794205353141072,-1.0593601212033101
2.1330897779014117,21.468110524358547,-0.0376776799994709,1.1604548978657017,-1.025786798931587
2.1256032732925045,21.237886779096513,-0.03718736608959864,1.1417825547546185,-0.9935141521812302
2.1182158274898795,21.011369096036702,-0.036687091936653114,1.1233942758435143,-0.9624776539620407
2.1109292755142506,20.788501549399825,-0.03617842781963448,1.1052811905252689,-0.9326165703421675
2.103745152977729,20.569229953375896,-0.035662797545580945,1.087434769714001,-0.903873701189782
2.0966647240808878,20.35350179551325,-0.03514149142283461,1.0698468089124753,-0.876195141024707
2.08968900713439,20.141266173393994,-0.0346156780421437,1.052509412280103,-0.8495300582360167
2.0828187978320036,19.93247373440279,-0.034086414981715295,1.0354149776318902,-0.8238304910886649
2.0760546904798054,19.72707661840918,-0.03355465854026927,1.018556182304276,-0.7990511590917291
2.0693970973666365,19.52502840319586,-0.03302127259141915,1.001925969828878,-0.7751492884348876
2.0628462664431786,19.326284052476996,-0.03248703664316025,0.9855175373597784,-0.7520844503200058
2.05640575967635,19.130990075616943,-0.031918031025126824,0.967422231240741,-0.7673964758032696
2.050076281894526,18.939303528728857,-0.0313767467931127,0.9494432376401086,-0.7845845355580394
2.043852306561075,18.751201468024227,-0.030863006541396495,0.9315773694062189,-0.8035302489294834
2.037728352200586,18.566661574219243,-0.030376537063491804,0.9138215686436131,-0.8241180130652613
2.0316990007439117,18.385662127162057,-0.029916977503253527,0.8961729019282488,-0.8462347473349142
2.025758914308673,18.20818198137337,-0.029483886849132265,0.8786285559585995,-0.8697696438734231
2.0199028505421297,18.03420054241453,-0.029076750816301348,0.8611858336298163,-0.8946139232326356
2.014125676644754,17.863697743999456,-0.028694988157455466,0.8438421505209269,-0.9206605941363495
2.0084223821850706,17.69665402576858,-0.02833795643937874,0.8265950317878467,-0.9478042163398067
2.0027880908092452,17.53305031164401,-0.02800495731887365,0.809442109457836,-0.9759406655920828
1.9972180709425278,17.37286798868583,-0.027695241348302167,0.7923811201239782,-1.004966899690221
1.9917077455739187,17.2160888863693,-0.027408012337789233,0.7754099030413089,-1.0347807245966933
1.9862527012103348,17.062695256202225,-0.027142431298049555,0.7585263986294507,-1.065280559566591
1.9808486960820504,16.912669751600276,-0.0268976199847946,0.7417286473900314,-1.0963652001974646
1.9754916676772978,16.765995407936188,-0.026672664062731128,0.7250147892508437,-1.1279335782724953
1.9701777396806,16.622655622675836,-0.02646661590424827,0.7083830633526962,-1.1598845172161731
1.9649032283866772,16.482634135510636,-0.026278497034978827,0.6918318082992647,-1.1921164819202816
1.959664648659631,16.345915008391206,-0.02610730023548319,0.6753594628950605,-1.2245273216260968
1.9544587195055516,16.212482605361505,-0.02595199130531002,0.6589645674019533,-1.2570140044656033
1.9492823693257602,16.082321572086247,-0.02581151049260411,0.6426457653506282,-1.2894723421694714
1.9441327409175775,15.955416814956184,-0.025684773589223057,0.6264018059500058,-1.321796703341798
1.9390071962898598,15.831753479646668,-0.02557067268795281,0.6102315471451363,-1.353879713580499
1.933903321361581,15.711316928993902,-0.025468076594835493,0.5941339593825246,-1.385611940587146
1.928818930613518,15.59409272004051,-0.02537583088579554,0.5781081301513995,-1.4168815622605984
1.9237520717656764,15.480066580087342,-0.025292757592620535,0.5621532693802742,-1.4475740156048877
1.918701030556528,15.369224381571271,-0.025217654498864372,0.5462687157804442,-1.477571624103957
1.9136643357045087,15.261552115569025,-0.02514929402132742,0.5304539442420382,-1.5067532010252263
1.9086407641376402,15.157035863704412,-0.025086421647358196,0.5147085744040945,-1.5349936259129957
1.9036293465836813,15.05566176821019,-0.025027753892228888,0.4990323805381184,-1.5621633913254376
1.898629373621042,14.957415999865887,-0.024971975734165076,0.4834253029049177,-1.588128116661954
1.8936404022999114,14.86228472349865,-0.02491773747714194,0.4678874607674375,-1.6127480257309958
1.8886622634538814,14.770254060695105,-0.024863650983156745,0.45241916726801246,-1.6358773845370815
1.8836950698349477,14.6813100493276,-0.024808285206179878,0.4370209464070274,-1.6573638956418746
1.8787392252194137,14.595438599447757,-0.024750160949161028,0.4216935523913925,-1.677048045409932
1.8737954346491927,14.512625445043096,-0.024687744753048798,0.406437991655231,-1.694762400531612
1.8688647159926473,14.432856091088464,-0.024619441812407553,0.39125554789107586,-1.7103308504902839
1.8639484130318675,14.356115755252716,-0.0245435877953896,0.37614781046641693,-1.723567793203783
1.8590482103097434,14.282389303542534,-0.024458439425851276,0.3611167066354014,-1.73427726205712
1.854166150001029,14.211661179080473,-0.024362163661292662,0.34616453798520125,-1.7422519941488428
1.8493046511078406,14.143915323124439,-0.0242528252705909,0.33129402157512194,-1.747272442073876
1.8444665313229818,14.079135087344454,-0.02412837257799648,0.3165083362247139,-1.7491057353557709
1.8396550319560587,14.017303136284912,-0.023986621091235373,0.3018111743706924,-1.7475046032843862
1.8348738463802694,13.958401338865883,-0.02382523466665922,0.28720679981960606,-1.7422062792158162
1.830127152536086,13.902410647729827,-0.02364170377517264,0.27270011154094165,-1.7329314185000964
1.8254196501279216,13.849310965243316,-0.023433320306473042,0.258296713324159,-1.7193830797631484
1.8207566032806897,13.799080995051995,-0.023197148165846428,0.24400298858906508,-1.701245844630568
1.8161438895995832,13.751698078314842,-0.022929988645219553,0.22982617878247613,-1.6781851874860503
1.8115880568213882,13.707138014191113,-0.02262833913672847,0.21577446245482906,-1.6498472592420241
1.80709638859577,13.665374864939988,-0.022288343119453415,0.201857030056431,-1.6158593240042969
1.8026769814484627,13.62638074729471,-0.021905728353620094,0.1880841463963415,-1.5758311940866374
1.7983388357487091,13.590125613843203,-0.021475728643914407,0.1744671881187371,-1.5293581593143104
1.7940919646809612,13.556577031342055,-0.020992982033566587,0.16101863689272772,-1.4760261164593262
1.7899475270475915,13.525699967691374,-0.02045139430012792,0.14775199961409893,-1.4154198916267346
1.785917992592895,13.497456606309441,-0.019843950246839347,0.1346816142052385,-1.3471361276760918
1.7820173530563872,13.471806216529384,-0.01916244511823739,0.1218222835953298,-1.2708025804771683
1.7782613993078744,13.448705121869466,-0.01839709236689197,0.10918866300383478,-1.186106187168066
1.774668096196532,13.428106824267388,-0.017535938746531584,0.09679431301694912,-1.0928326828438526
1.7712581044676825,13.409962359064053,-0.016563978541964012,0.08465033901638525,-0.9909204633603931
1.768055526800417,13.394220965100239,-0.015461798130688582,0.07276360062176516,-0.8805300018089257
1.76508899850316,13.380831139254976,-0.014203484841883732,0.061134657830854824,-0.7621259458389551
1.7623933143651989,13.36974207062483,-0.01275335653772744,0.04975602847060516,-0.6365599786242737
1.7600119135706,13.360905256956439,-0.01106065140825938,0.0386121082133257,-0.5051271807534699
1.7580008459682883,13.35427569745228,-0.009050024614860416,0.02768348682827338,-0.36954976292861197
1.756435776535982,13.349811198098994,-0.0066006697082022225,0.016961506704578924,-0.23183114755405676
1.7554276461948155,13.347465731509242,-0.003480633703463558,0.006493159192924777,-0.09393961185597663
