x,y,v_x,v_y,omega
2.375,32.48,0.0,2.564102564102564,-5.183673469387755
2.3741387375164,31.99774355958346,-0.009065920880000225,2.51228101922941,-4.913160023130573
2.3716609644846915,31.52517079619939,-0.01701590050640437,2.4621691216555317,-4.663285547775516
2.367766409068809,31.0619659773841,-0.02397941966077993,2.413671076400131,-4.431966918523185
2.362631756087783,30.60783084042866,-0.030069559086864477,2.3666987862887097,-4.217373253953573
2.356413542841106,30.16248321079487,-0.03538531719394016,2.3211709993301297,-4.017890680803524
2.3492506494216565,29.72565577085713,-0.04001356090553243,2.277012578961869,-3.8320926755683167
2.341266447033459,29.297094957675693,-0.04403067475970398,2.234153875579611,-3.658714993090287
2.3325706566909776,28.876559972192478,-0.04750396042430872,2.1925301821384218,-3.496634387857407
2.323260961722537,28.463821885189194,-0.05049282871717308,2.1520812600014185,-3.3448504865916653
2.313424410254593,28.058662827722596,-0.05304981831381582,2.1127509238575124,-3.2024702910860885
2.303138637953223,27.660875255678228,-0.05522146906902814,2.0744866766095416,-3.068694885714157
2.292472936466885,27.270261279656246,-0.057049072892421594,2.03723938677972,-2.9428080002349937
2.2814891890359705,26.886632052694644,-0.05856932111720583,2.0009630022897706,-2.824166139708098
2.2702426914430713,26.509807209402425,-0.059814864071206064,1.965614295523088,-2.7121900427463994
2.2587828737423874,26.13961435096258,-0.060814795935992615,1.9311526354225972,-2.6063572694525314
2.247153935923812,25.775888571206345,-0.06159507583848745,1.8975397830641338,-2.5061957531109935
2.235395408754723,25.418472019583312,-0.06217889436244892,1.864739707704602,-2.411278176532588
2.223542649434472,25.067213497378912,-0.06258699321913877,1.8327184207627902,-2.321217056027808
2.211627280339959,24.72196808397742,-0.06283794461784561,1.8014438255687142,-2.235660434235896
2.199677577992583,24.382596790350494,-0.06294839588084378,1.7708855810304864,-2.1542880981787262
2.1877188184023355,24.048966237277895,-0.06293328401650179,1.741014977628431,-2.076808251518499
2.1757735841152326,23.72094835608859,-0.06280602426879194,1.7118048243642832,-2.0029545805353153
2.1638620375823425,23.398420109953697,-0.06257867607741971,1.6832293454766643,-1.932483662174635
2.1520021648628593,23.081263233973978,-0.06226208939082125,1.6552640858888412,-1.8651726699437787
2.14020999315416,22.76936399248836,-0.061866033858649576,1.627885824486086,-1.8008173397029674
2.128499785195152,22.46261295219116,-0.06139931307827212,1.601072494431783,-1.7392301626969187
2.1168842132044956,22.16090476978657,-0.06086986577074238,1.5748031098270656,-1.6802387776687295
2.105374514683104,21.864137993033417,-0.06028485550706666,1.5490576981008828,-1.6236845377208036
2.0939806321230487,21.572214874142958,-0.05965075038825226,1.5238172375881391,-1.5694212308466642
2.082711338415977,21.28504119458968,-0.058973393896710934,1.499063599814772,-1.517313935842495
2.071574349537954,21.00252610048141,-0.058258067977213515,1.4747794960617349,-1.4672379976926018
2.0605831971999162,20.72458545904163,-0.057438272423186575,1.4509114664622795,-1.4164430234368368
2.0497492288961983,20.45113801585221,-0.05660349919489993,1.4274826723737566,-1.36787000367609
2.0390750005783027,20.182101756795184,-0.055756798888208024,1.4044779492791224,-1.321396153660411
2.028562519379998,19.91739748542257,-0.054900897936053496,1.3818828020115406,-1.2769067573536246
2.0182133021276503,19.65694869934615,-0.05403823103602577,1.3596833672139517,-1.2342945523475064
2.00802842800757,19.400681473519573,-0.05317097022797793,1.3378663783289575,-1.1934591679725906
1.9980085859920798,19.14852434995111,-0.05230105098771076,1.3164191329180093,-1.1543066114655403
1.9881541175605348,18.9004082334218,-0.051430195660130566,1.2953294621273643,-1.1167487976012742
1.9784650551936145,18.656266292816895,-0.05055993451797635,1.2745857021348097,-1.0807031176823247
1.9689411570679551,18.41603386770862,-0.04969162469949089,1.254176667425974,-1.0460920442063493
1.9595819383327842,18.179648379855728,-0.0488264672496775,1.2340916257623677,-1.0128427679122847
1.9503866993099352,17.94704924931035,-0.04796552246452145,1.2143202747152662,-0.9808868642423977
1.9413545509228507,17.718177814845617,-0.047109723715316305,1.1948527196503458,-0.9501599865566691
1.9324844376283852,17.49297725843835,-0.04625988991063522,1.1756794530577226,-0.9206015837021106
1.9237751580969367,17.271392533560437,-0.04541673673619282,1.1567913351308443,-0.8921546397767053
1.9152253838612294,17.05337029704997,-0.04458088679756592,1.1381795755056532,-0.8647654341391254
1.9068336761316238,16.83885884434946,-0.04375287877723141,1.119835716078658,-0.8383833199042281
1.898598500955772,16.62780804791322,-0.04293317570541969,1.1017516148291018,-0.8129605193331716
1.890518242882557,16.420169298599703,-0.0421221724336833,1.0839194305763662,-0.7884519346781432
1.8825912172742427,16.215895449877078,-0.041320202390678594,1.0663316086091725,-0.7648149731771455
1.8748156813964538,16.01494076468204,-0.04052754369131007,1.0489808671280625,-0.7420093850158214
1.8671898444027977,15.817260864782398,-0.03974442466296662,1.031860184447151,-0.7199971131824625
1.8597118763194478,15.62281268250392,-0.03897102884597818,1.0149627869052433,-0.6987421542405017
1.8523799161247232,15.431554414691107,-0.03820749951954315,0.9982821374401598,-0.678210429131146
1.8451980073101586,15.243652315659538,-0.03739154063376965,0.9796346944711002,-0.7015901188304416
1.8381671618055977,15.059282506294476,-0.0366173594142409,0.9611001409506251,-0.7266195992943034
1.8312795384906395,14.87842382129034,-0.03588393863795018,0.9426754906718682,-0.7531834581429918
1.8245274942983871,14.70105565122656,-0.0351902107541786,0.9243578784205579,-0.7811686253715726
1.8179035932661223,14.527157919956753,-0.0345350632696633,0.9061445559984538,-0.8104641206424602
1.8114006146093762,14.356711062713643,-0.03391734364345059,0.888032888665882,-0.840960805093684
1.8050115599094734,14.189696004850806,-0.033335863723946854,0.8700203519955787,-0.8725511366144928
1.798729659498739,14.026094141143595,-0.03278940375746978,0.8521045291329629,-0.9051289275404505
1.7925483781222984,13.865887315572174,-0.03227671599453479,0.8342831084609641,-0.9385891037128822
1.7864614199506872,13.709057801509672,-0.031796527917163094,0.8165538816706363,-0.9728274638321814
1.7804627330133305,13.555588282237967,-0.031347545107642,0.7989147422420617,-1.0077404380107886
1.7745465131193483,13.405461831712337,-0.030928453776380895,0.7813636843435189,-1.0432248443992167
1.7687072073290349,13.258661895494445,-0.030537922963761753,0.7638988021606098,-1.079177642716877
1.7629395170368027,13.115172271770433,-0.030174606428155344,0.7465182896710759,-1.1154956834680902
1.757238400724322,12.974977092367563,-0.029837144229536608,0.7292204408854319,-1.1520754515619442
1.7515990764410572,12.838060803678498,-0.029524164015356135,0.712003650578393,-1.1888128029818812
1.7460170240684127,12.704408147397114,-0.029234282012480017,0.6948664155414395,-1.225602693066284
1.740487987423251,12.574004140963357,-0.028966103726064778,0.6778073363928464,-1.2623388948640868
1.7350079762566752,12.446834057607155,-0.02871822434315334,0.6608251199882107,-1.2989137059186908
1.729573268204701,12.322883405872481,-0.0284892288355241,0.6439185824820509,-1.335217641708399
1.7241804107488048,12.202137908492226,-0.028277691752856726,0.6270866530995753,-1.3711391138313913
1.7188262232463962,12.084583480472467,-0.028082176693549527,0.610328378687362,-1.4065640908673267
1.7135077990940433,11.970206206230518,-0.027901235436483176,0.5936429291226438,-1.4413757396755627
1.7082225080898787,11.858992315614898,-0.027733406712617197,0.5770296036733459,-1.47545404470179
1.702967999066086,11.750928158616489,-0.02757721459046472,0.5604878384151835,-1.5086754026612517
1.697742202867798,11.646000178558364,-0.027431166444144603,0.5440172148282515,-1.5409121897493567
1.6925433357612607,11.544194883526863,-0.027293750466774368,0.5276174697138658,-1.5720322983025614
1.6873699033618093,11.44549881577769,-0.02716343268534624,0.5112885065932232,-1.6018986395991808
1.6822207051812494,11.349898518817898,-0.027038653425807958,0.49503040877300586,-1.6303686092597434
1.6770948399047698,11.257380501826951,-0.02691782316871596,0.47884345428959996,-1.6572935114924734
1.671991711519736,11.167931201036971,-0.026799317726376923,0.4627281329733339,-1.6825179382507431
1.6669110364328743,11.081536937643325,-0.026681472661642874,0.44668516590714147,-1.7058790992542072
1.6618528517286775,10.998183871761075,-0.02656257685621738,0.4307155275902122,-1.7272060988150517
1.6568175247407344,10.917857951880176,-0.026440865122130855,0.41482047115607634,-1.7463191555649864
1.6518057641294495,10.840544859202002,-0.026314509733499757,0.3990015570352254,-1.7630287615830007
1.6468186326848304,10.766229946161818,-0.02618161073617377,0.3832606854930248,-1.7771347782014655
1.6418575621022906,10.69489816835641,-0.026040184869509323,0.3676001335112854,-1.788425467094878
1.6369243700136178,10.626534009004253,-0.025888152905993937,0.352022596511427,-1.7966764573832488
1.6320212795955569,10.56112139496975,-0.02572332517885839,0.3365312354307209,-1.801649652771104
1.6271509421264532,10.498643603287256,-0.025543385022233207,0.32112972964816744,-1.8030920877091445
1.622316462919449,10.439083157032261,-0.02534586978833664,0.3058223361938984,-1.800734748947851
1.6175214311322188,10.382421709317903,-0.02512814902461451,0.2906139555361831,-1.7942913897106227
1.6127699540433138,10.328639914164,-0.024887399279645773,0.27551020397858234,-1.783457379568933
1.6080666965017159,10.277717283022334,-0.024620574842437352,0.2605174922494726,-1.7679086561342665
1.6034169264113327,10.22963202589158,-0.02432437347738581,0.245643109126887,-1.7473008780138242
1.598826567325088,10.184360876286835,-0.023995195851506324,0.23089530776514525,-1.7212689265628853
1.5943022595242873,10.141878899946025,-0.02362909678850174,0.21628339055918186,-1.6894269731121823
1.5898514313966692,10.102159288212238,-0.023221725607476876,0.20181778558594277,-1.6513694273662678
1.5854823835790222,10.065173138752602,-0.02276825142038798,0.18751010346287375,-1.60667322359957
1.5812043893233994,10.030889228982435,-0.022263267059851898,0.1733731572757091,-1.5549020999306984
1.5770278160832514,9.999273791705246,-0.021700661783809007,0.15942091932629882,-1.4956138015908613
1.5729642757252655,9.970290308641577,-0.02107344724762063,0.14566837608074296,-1.4283715115897657
1.5690268145807504,9.943899346402642,-0.0203735121683296,0.13213122643435324,-1.3527612929349409
1.5652301605935308,9.92005847172743,-0.019591266644506958,0.11882534909420403,-1.2684178953970646
1.5615910544100724,9.89872229862172,-0.01871511423400418,0.10576594675534913,-1.1750618325918218
1.5581287064100948,9.879842738040942,-0.017730654186810933,0.0929662698844084,-1.072550876639168
1.5548654454683084,9.863369535758078,-0.016619460989887844,0.08043585940889154,-0.9609483692221894
1.5518276624997602,9.849251182802849,-0.015357201836935336,0.06817838222510823,-0.8406076772411745
1.5490472113093912,9.837436237286362,-0.013910705430106021,0.05618946531686289,-0.7122645895713913
1.546563532061192,9.827874955292828,-0.01223328665620277,0.0444556082992801,-0.577115187973994
1.5444269773798487,9.820520808012208,-0.010256762621094618,0.0329564683388059,-0.43683623505369173
1.542704416743728,9.8153308034478,-0.007875454601229086,0.021675158654955885,-0.29348714023712663
1.5414904666640743,9.812261898417795,-0.004902967289861664,0.010629104818785515,-0.14923573086985892
1.5409417655551487,9.811252411702124,-0.000872833856724581,-2.928864376014473e-06,-0.00593916383210899
