x,y,v_x,v_y,omega
2.375,32.48,0.0,2.1025641025641026,-4.816326530612245
2.3740503516086933,32.00135173815731,-0.008257812098320674,2.059594696067957,-4.565119757804587
2.371318559496281,31.532423002593724,-0.01549690192265383,2.018046482745846,-4.332975313760974
2.3670253483611488,31.072896266099125,-0.02183536881762794,1.977838182424566,-4.117971515296585
2.3613660036320745,30.622471919141034,-0.02737632447867005,1.9388952693849222,-3.918419981310242
2.3545135732785942,30.180866805953613,-0.03221002642115802,1.9011491931143714,-3.7328328266752053
2.3466216183040243,29.747812926455406,-0.03641566900988402,1.864536715565698,-3.559895106985201
2.337826583544844,29.323056279618605,-0.0400628941134233,1.8289993438847376,-3.3984415673130526
2.3282498475826148,28.90635582825185,-0.04321307077552607,1.7944828419131518,-3.247436938938158
2.317999500338956,28.497482568612437,-0.04592038351716074,1.7609368071252234,-3.1059591761919885
2.3071718886886914,28.096218691032586,-0.0482327612677468,1.7283143022647673,-2.973185141600999
2.295852963754466,27.702356819978363,-0.05019267294291,1.6965715329893505,-2.848378339035895
2.284119458106688,27.31569932377428,-0.051837810950807785,1.6656675644374779,-2.7308783672826475
2.2720399166321066,26.936057685709322,-0.053201680132513716,1.6355640709099744,-2.6200918245803893
2.2596756011567845,26.5632519294591,-0.05431410660941634,1.6062251138745658,-2.5154844414285518
2.2470812858622926,26.197110092766778,-0.0552016785600797,1.5776169443195536,-2.416574256787999
2.2343059579978046,25.837467744163707,-0.055888128957204936,1.5497078261419095,-2.3229256835577674
2.221393436270957,25.484167538211494,-0.056394668667557026,1.5224678777903997,-2.234144334344084
2.2083829175214036,25.137058805336157,-0.056740276980732356,1.4958689298212262,-2.149872499174665
2.195340136682397,24.79600359654569,-0.056675208575848623,1.4698285379219398,-2.0638841019461465
2.1823236033046816,24.4608695657126,-0.05651203818689528,1.444380425844065,-1.9823361908416695
2.1693545643426115,24.131523237145103,-0.056262213657190224,1.4195006921341906,-1.9049413708992646
2.156451771310676,23.807836486670205,-0.05593598662051239,1.3951667032996762,-1.8314343985192894
2.1436317406139183,23.489686259888618,-0.055542541177379744,1.3713570078445732,-1.7615702015833707
2.1309089859798056,23.17695430938084,-0.05509010781490206,1.3480512574404593,-1.6951221006467994
2.118296226175911,22.86952694930504,-0.054586064392879184,1.325230134523008,-1.6318802083293447
2.1058045708065523,22.5672948259808,-0.05403702577545558,1.3028752856877837,-1.5716499869139708
2.0934436866422366,22.270152703188714,-0.053448923479464644,1.2809692603303369,-1.5142509466474885
2.081221946640908,21.977999261036373,-0.05282707653208759,1.2594954540378651,-1.4595154693823496
2.0691465635633586,21.690736907348224,-0.05217625457703651,1.2384380562938717,-1.4072877440552347
2.057223709861321,21.4082716006324,-0.05150073413633712,1.2177820021045882,-1.3574228021081842
2.045458625321256,21.130512683762674,-0.05080434882074765,1.1975129271973801,-1.3097856423574583
2.033855713775798,20.857372727590032,-0.050090534183235565,1.1776171264777668,-1.2642504360341253
2.0224186300449087,20.588767383766758,-0.049362367824498085,1.1580815154637407,-1.2206998037839736
2.0111503581372747,20.324615246127326,-0.04862260528536091,1.1388935944443668,-1.1790241573442615
2.0000532816268697,20.064837720025736,-0.04787371219642247,1.1200414151346627,-1.1391210994293475
1.9891292470178765,19.80935889907884,-0.04711789309917084,1.1015135496209554,-1.100894876071967
1.978379620821531,19.55810544881021,-0.04635711730383407,1.083299061410611,-1.06425587629515
1.9678053409893481,19.311006496729966,-0.04559314210645101,1.0653874784175952,-1.029120174542888
1.9574069632773299,19.067993528422882,-0.044827533650230116,1.0477687677309646,-0.9954091117854285
1.9471847030539529,18.829000289250672,-0.04406168568348229,1.0304333120273865,-0.9630489116458832
1.937138473010022,18.593962691304874,-0.043296836437655736,1.013371887501308,-0.9319703282759249
1.9272679171799616,18.362818725274494,-0.04253408382373976,0.9965756431976298,-0.9021083230459369
1.91757949919494,18.135626201543026,-0.04171302908949223,0.9790115196847284,-0.893971261066719
1.9080773448121433,17.912457403652642,-0.04091440032613084,0.9615867228403383,-0.8886867769082893
1.8987561860219355,17.693280787217518,-0.04013915437132821,0.9442968983346764,-0.8861035272287684
1.8896105568656774,17.478065787480723,-0.03938805568308994,0.92713788198524,-0.8860754496205295
1.8806348358543603,17.266782776670432,-0.03866169224140583,0.9101056902781798,-0.8884613940397248
1.8718232848730358,17.059403023454635,-0.037960490204894774,0.8931965115983205,-0.893124771205348
1.8631700848465726,16.855898654336375,-0.03728472741652355,0.8764066981256798,-0.8999332163828798
1.8546693684215283,16.656242616840437,-0.03663454584473383,0.8597327583607536,-0.9087582670549536
1.8463152498998763,16.460408644350775,-0.036009963039195535,0.8431713502449841,-0.9194750530576941
1.8381018526428758,16.268371222465223,-0.035410882673850556,0.8267192748467533,-0.9319619978270955
1.8300233341473393,16.080105556740342,-0.034837104243858885,0.8103734705869795,-0.9461005294555539
1.8220739089818885,15.89558754170491,-0.03428833197745482,0.7941310079819957,-0.9617748003049169
1.8142478697573519,15.714793731025217,-0.03376418301851479,0.7779890848848758,-0.9788714139594918
1.8065396062931822,15.53770130870933,-0.0332641949307861,0.761945022209799,-0.9972791583306061
1.7989436231305707,15.364288061240547,-0.03278783257018492,0.7459962601274318,-1.016888743743704
1.7914545555327592,15.194532350532779,-0.03233449436730527,0.7301403547227184,-1.037592544849646
1.7840671841038205,15.028413087602026,-0.031903518058250195,0.7143749751099168,-1.0592843452038299
1.7767764481488437,14.86590970684901,-0.03149418589806976,0.6986979010032732,-1.0818590833498742
1.7695774578910108,14.707002140847912,-0.03110572938743254,0.6831070207454163,-1.10521259922869
1.7624655056543976,14.551670795535255,-0.03073733353963784,0.667600329799434,-1.1292413797085634
1.7554360761154983,14.399896525691126,-0.030388140711661845,0.6521759297147262,-1.1538423019970196
1.748484855721404,14.251660610602098,-0.03005725401959147,0.6368320275811623,-1.1789123736503206
1.7416077413682682,14.106944729791312,-0.029743740355502684,0.6215669359908855,-1.2043484678409953
1.7348008484301367,13.965730938696137,-0.02944663301955285,0.6063790735323686,-1.23004705247727
1.7280605182254476,13.828001644167493,-0.029164933977745115,0.59126696584713,-1.255903911690111
1.721383325006475,13.693739579657187,-0.028897615752451793,0.5762292472859518,-1.2818138581132437
1.7147660825557718,13.56292777995031,-0.028643622949314537,0.5612646632086213,-1.3076704342784664
1.7082058504732394,13.435549555288706,-0.028401873420531843,0.5463720729792585,-1.3333656013324184
1.7016999402378916,13.311588464718483,-0.028171259060754333,0.5315504537183361,-1.3587894131514813
1.6952459211297093,13.191028288479362,-0.027950646227787004,0.5167989048826996,-1.383829673788807
1.688841626099275,13.073852999235864,-0.027738875775991434,0.5021166537564137,-1.4083715760321862
1.6824851576761886,12.960046731929822,-0.02753476268562939,0.48750306194829485,-1.432297318685001
1.676174894011714,12.849593752009994,-0.02733709526632426,0.47295763300672783,-1.4554857000073478
1.6699094951567517,12.742478421767135,-0.027144633907259665,0.45848002127901105,-1.4778116845747395
1.6636879096832486,12.638685164471507,-0.02695610934059467,0.444070042161247,-1.4991459406341165
1.6575093817656397,12.538198425973789,-0.026770220377743792,0.42972768390586663,-1.5193543448711064
1.6513734588490894,12.441002633389214,-0.026585631070517913,0.4154531211774056,-1.5382974513632546
1.6452800000433236,12.347082150437895,-0.026400967240488103,0.4012467305731978,-1.5558299214027884
1.6392291853950045,12.256421228961251,-0.026214812310115455,0.38710910835414103,-1.571799910860469
1.63322152620818,12.169003956074476,-0.026025702357922318,0.3730410906613049,-1.5860484118739278
1.6272578766017243,12.084814196347914,-0.025832120306911285,0.35904377652619734,-1.598408545943556
1.6213394465153197,12.003835528335713,-0.025632489140084112,0.34511855401468655,-1.6087048060977274
1.615467816402072,11.926051174688435,-0.02542516401859165,0.3312671298746836,-1.6167522467768136
1.60964495387702,11.851443924998406,-0.02520842315577401,0.3174915630820981,-1.6223556216669628
1.6038732326277478,11.77999605043432,-0.02498045727267889,0.30379430269255325,-1.6253084721529834
1.5981554539374685,11.7116892091288,-0.02473935742540233,0.29017823039893265,-1.6253921727294323
1.5924948712244729,11.646504341195293,-0.024483100948473467,0.27664670815330245,-1.622374945143694
1.5868952180678115,11.58442155217941,-0.024209535196406697,0.2632036311152309,-1.6160108610052684
1.5813607402720782,11.52541998371052,-0.02391635867953509,0.2498534860055392,-1.6060388641670051
1.5758962326311285,11.469477670137668,-0.0236010990678532,0.2366014146279531,-1.592181860914696
1.570507081192142,11.416571380048342,-0.023261087358118087,0.22345328180095694,-1.5741459500964632
1.5651993120141048,11.366676441837988,-0.022893427233509116,0.21041574611516337,-1.5516198999138215
1.55997964768447,11.319766553010325,-0.022494958241575044,0.19749633064713742,-1.524275027600258
1.5548555732453146,11.275813573773611,-0.022062210794559015,0.1847034888025372,-1.4917657087963236
1.5498354137508072,11.23478730694585,-0.02159135002724399,0.17204665752581666,-1.4537308435353875
1.5449284265349603,11.196655268464628,-0.02107810402359967,0.1595362857891655,-1.4097967465690469
1.5401449125783402,11.161382456294604,-0.020517669512228352,0.1471838200371476,-1.3595821252516813
1.5354963533896142,11.128931130744231,-0.019904584302777747,0.13500161953132309,-1.3027060737966185
1.5309955829840591,11.099260626770093,-0.01923254965857292,0.123002762852479,-1.238800360554462
1.5266570095117675,11.072327229421791,-0.018494176187441404,0.11120069235013066,-1.1675277113180296
1.5224969089000977,11.048084157573602,-0.01768061174012214,0.09960862806892187,-1.088608247768267
1.518533825116469,11.02648171795672,-0.016780986378386296,0.08823867294744198,-1.0018565710425709
1.5147891307250045,11.007467708197787,-0.015781573547392833,0.07710054234764431,-0.9072318096283908
1.5112878309385729,10.990988155497512,-0.014664511552011927,0.06619991591561132,-0.8049014988016341
1.5080597403443377,10.976988457458948,-0.013405841441338287,0.05553658876753898,-0.6953160577139205
1.505141236316891,10.96541490623164,-0.011972454449502595,0.04510298712210741,-0.5792820510066323
1.502577932036031,10.956216363839182,-0.010317147992758331,0.03488433802969293,-0.45800833019965137
1.5004289403074618,10.949345412376022,-0.00836973660349598,0.02486306599777336,-0.33308264011723554
1.498774440495644,10.944757366931956,-0.006017218281874426,0.015032981341926648,-0.20632821847650756
1.4977329061737459,10.942402594397805,-0.003039601908545022,0.005443301563736043,-0.07950738983768574
