x,y,v_x,v_y,omega
2.375,32.48,0.0,2.3076923076923075,-6.040816326530612
2.374020694728803,32.02301408940822,-0.009793052711966899,2.2621667982254348,-5.738921071914934
2.3711986754765397,31.574987505476155,-0.018427139810669416,2.2180990410952464,-5.458958168779841
2.3667528344876887,31.13563692487816,-0.026031270077840306,2.1754067648847037,-5.1988018533966285
2.360877842943043,30.704694792530134,-0.03271864536861971,2.134014558595543,-4.956575718003974
2.3537470933057945,30.281908029415245,-0.03858885100386342,2.093853072553362,-4.730618631544092
2.345515238152041,29.867036888245252,-0.0437297005336689,2.054858339146565,-4.519455997305965
2.336320388394763,29.459853935138234,-0.04821879703911023,2.016971191923598,-4.321775399772851
2.326286022645003,29.060143139351982,-0.05212486045849401,1.9801367659389328,-4.136405882018668
2.3155226505347795,28.66769905619531,-0.05550886064373862,1.944304065627801,-3.9623002421204196
2.3041292656464516,28.282326090718627,-0.058424988239540794,1.9094255891390122,-3.798519852469758
2.292194617872346,27.903837831790813,-0.06092148950151552,1.8754570001391304,-3.64422159708877
2.2797983302781963,27.532056447801835,-0.06304138643998321,1.8423568397506371,-3.498646594660724
2.2670118816436777,27.166812136566797,-0.06482309990520126,1.8100862725997384,-3.3611104331540527
2.2538994726329427,26.807942623106754,-0.06630099020214933,1.7786088620007061,-3.2309946888044876
2.2405187908751225,26.455292699891697,-0.06750582737605042,1.7478903701498596,-3.107739540231105
2.226921688005504,26.108713804888005,-0.06846520132013428,1.717898579887088,-2.9908373194433278
2.2131547798504867,25.768063633385314,-0.0692038802300423,1.6886031351398056,-2.879826866875386
2.1992599793683243,25.43320578010938,-0.06974412459158079,1.6599753976195362,-2.77428857847399
2.1852749706308345,25.104009408575898,-0.07010596278331499,1.631988317715288,-2.6738400501352046
2.1712336310066904,24.78034894502072,-0.07030743345812729,1.604616317836496,-2.5781322391248245
2.1571664077505655,24.462103794565657,-0.07036479910312138,1.5778351867141378,-2.486846074067837
2.1431006543865365,24.149158077556073,-0.07029273453717005,1.5516219833816742,-2.3996894550915826
2.1290609315760562,23.841400384244345,-0.07010449356763297,1.5259549497356184,-2.316394594102466
2.115069276561857,23.538723546198266,-0.06981205657435766,1.500813430725169,-2.2367156522484772
2.1011454447638696,23.241024422991096,-0.06942626140551932,1.4761778013465214,-2.1604266375966965
2.0873205984392933,22.94821025252718,-0.06882220184024121,1.4519639032926563,-2.083040542986227
2.0736218588704887,22.660191581022644,-0.06816519384780645,1.4282228117526719,-2.009185728177001
2.0600591530833134,22.376875556274392,-0.06746186402394533,1.404937435729895,-1.9386590637436845
2.046641148106992,22.098172664030024,-0.06671818573926629,1.3820914867137513,-1.8712713338428963
2.033375375185857,21.823996572323416,-0.06593954347208626,1.359669430352345,-1.8068461296520748
2.0202683417924683,21.55426398512038,-0.06513079046180216,1.3376564416780563,-1.7452188428548612
2.007325632703763,21.288894504595206,-0.06429630042524814,1.31603836357365,-1.6862357490374196
1.9945520012622742,21.02781050141798,-0.06344001398964116,1.2948016681986059,-1.62975317199828
1.9819514518214754,20.770936992485744,-0.06256548041834777,1.27393342112377,-1.5756367209719333
1.9695273142658198,20.518201525578615,-0.0616758951382083,1.2534212479475113,-1.5237605936424852
1.9572823114001818,20.269534070464985,-0.060774133518169335,1.2332533031887807,-1.4740069385943662
1.9452186199186305,20.024866916018887,-0.05986278129734467,1.2134182412721772,-1.426265271526224
1.93333792558736,19.784134572947906,-0.058944162015361776,1.1939051894376542,-1.3804319401535734
1.9216414732100127,19.54727368176183,-0.05802036175810981,1.1747037224231156,-1.336409633255728
1.9101301118844956,19.31422292564131,-0.05709325149706282,1.155803838782097,-1.2941069297917855
1.8988043360078306,19.08492294789198,-0.056164507269586446,1.1371959387111954,-1.2534378844265417
1.8876643224388205,18.85931627369355,-0.05523562842051204,1.1188708032730907,-1.214321646176744
1.8767099641866376,18.63734723587514,-0.0543079541013177,1.100819574911035,-1.176682107216719
1.8659409009562968,18.418961904468063,-0.05338267820209204,1.0830337391597034,-1.1404475791750648
1.8553565468488147,18.204108019805552,-0.05246086287272804,1.0655051074654338,-1.1055504945150627
1.8449561154842216,17.992734928955386,-0.05154345077320219,1.048225801036205,-1.0719271308244747
1.8347386427890937,17.784793525286933,-0.050631276178077445,1.0311882356483335,-1.039517356048699
1.8247030076665558,17.58023619098781,-0.04972507504730175,1.0143851073428563,-1.0082643928877213
1.8148479507454498,17.379016742358527,-0.04882549416375941,0.9978093789500018,-0.9781146007443929
1.8051795094044163,17.181278585944945,-0.04785891924657444,0.9795721851858334,-0.9862429198225848
1.7957007734575205,16.987175671818946,-0.046928440222383,0.9614569560741272,-0.9964955220152607
1.7864045644261506,16.796683949178245,-0.04603365009131698,0.9434602703328966,-1.0087434689077375
1.7772837945765936,16.609780037156177,-0.045174048404253174,0.9255788498877998,-1.0228611790669464
1.7683314847726757,16.42644119674722,-0.04434904963492664,0.9078095542017619,-1.0387261412403155
1.7595407807223018,16.246645303816905,-0.04355799086881075,0.8901493751013866,-1.0562186361767498
1.7509049677497517,16.07037082309857,-0.042800138856690526,0.8725954320819528,-1.0752214659071333
1.7424174842164057,15.897596783082783,-0.042074696476767856,0.8551449680759333,-1.0956196893516776
1.734071933704199,15.728302751707883,-0.041380808645301706,0.8377953456730765,-1.1173003631433398
1.7258620960684514,15.562468812762255,-0.040717567712172976,0.8205440437831926,-1.1401522865705163
1.7177819374597996,15.400075542910344,-0.04008401837434411,0.8033886547359245,-1.1640657495483469
1.7098256194086723,15.241103989255254,-0.0394791621369304,0.786326881814981,-1.1889322825261628
1.7019875070601305,15.085535647350994,-0.038901961348487196,0.7693565372276301,-1.214644407228802
1.6942621766418697,14.933352439576861,-0.03835134283411918,0.752475540513708,-1.2410953871114874
1.6866444222437469,14.784536693785284,-0.03782620114710946,0.7356819174020652,-1.2681789763814895
1.679129261983344,14.63907112213245,-0.0373254014569219,0.7189737991262757,-1.295789166404571
1.6717119436287893,14.496938799998258,-0.03684778208862473,0.7023494222156493,-1.3238199282698555
1.6643879497473277,14.358123144898478,-0.03639215672599069,0.6858071287821623,-1.3521649502329
1.6571530024459564,14.222607895287368,-0.03595731628772191,0.6693453673289312,-1.3807173686929357
1.6500030677688444,14.090377089143338,-0.035542030483397956,0.6529626941113793,-1.409369491286025
1.6429343598152224,13.961415042223365,-0.035145049052823306,0.6366577750883631,-1.4380125105908697
1.6359433446409977,13.835706325863793,-0.03476510268942353,0.6204293885073461,-1.4665362068478214
1.6290267440075379,13.713235744195526,-0.03440090364517334,0.6042764281753262,-1.4948286379840934
1.6221815390419008,13.593988310630415,-0.034051146011196534,0.5881979074757732,-1.5227758151192308
1.6154049738743197,13.477949223462694,-0.03371450566461603,0.5721929642014386,-1.5502613615949241
1.6086945593210173,13.365103840414179,-0.03338963986840545,0.5562608662837197,-1.5771661534330972
1.602048076683492,13.255437651934663,-0.033075186506850054,0.5404010185114346,-1.6033679389774915
1.5954635817393363,13.148936253048962,-0.032769762934704856,0.5246129703455833,-1.6287409353194229
1.5889394090045486,13.045585313519197,-0.03247196441317392,0.5088964249520833,-1.653155398952299
1.5824741763531964,12.945370546064815,-0.03218036210034685,0.49325124959175204,-1.6764771679483699
1.5760667900873995,12.848277672353031,-0.03189350055762247,0.47767748752610145,-1.6985671728146983
1.5697164505589563,12.754292386438529,-0.03160989472681025,0.4621753716189153,-1.7192809130775324
1.5634226584537867,12.663400315292925,-0.031328026324886064,0.4467453398371101,-1.7384678965853944
1.5571852218618372,12.57558697602122,-0.031046339594608563,0.4313880528799214,-1.7559710385401084
1.551004264268462,12.490837729313963,-0.030763236339142273,0.41610441419266586,-1.771626017402675
1.544880233618831,12.409137728629744,-0.030477070157167975,0.4008955926495245,-1.78526058513524
1.5388139126249882,12.330471864543018,-0.030186139781259797,0.38576304821775176,-1.796693829813037
1.5328064305062656,12.2548247036271,-0.029888681405966615,0.37070856094142124,-1.8057353895860215
1.5268592763784503,12.182180421172657,-0.029582859872185195,0.35573426360303423,-1.8121846184506967
1.5209743145362533,12.112522726969253,-0.02926675854978684,0.3408426784309959,-1.8158297065359177
1.5151538019083568,12.045834783304915,-0.028938367729176476,0.3260367582123806,-1.81644676093273
1.50940040800627,11.98209911427049,-0.028595571291692802,0.3113199321318621,-1.8137988579590334
1.5037172377396812,11.92129750540014,-0.028236131374193802,0.2966961565716431,-1.8076350847816889
1.4981078575354418,11.863410892648218,-0.027857670668199268,0.2821699709475879,-1.7976895984195307
1.4925763252797877,11.808419239714961,-0.027457651888343378,0.26774655838498823,-1.7836807445868923
1.487127224711686,11.756301402816774,-0.02703335379267359,0.25343181059687103,-1.7653102993920151
1.4817657050410658,11.707034982193484,-0.026581842913529063,0.23923239563604298,-1.7422629260820288
1.4764975267674099,11.660596160016855,-0.02609993982303022,0.2251558261302323,-1.714205980321645
1.4713291149601493,11.61695952500298,-0.025584178249574183,0.21121052400852572,-1.6807898557378156
1.4662676216768822,11.576097885067039,-0.025030754583096445,0.19740587535087772,-1.6416491432240243
1.4613209998083492,11.537982070979737,-0.024435464102233566,0.18375226552213256,-1.596404991449983
1.4564980915599737,11.502580736449545,-0.023793618381523943,0.17026107977979366,-1.5446692130630533
1.4518087361809975,11.46986016371169,-0.023099935408236787,0.15694464759874338,-1.4860508936176684
1.4472639037040356,11.439784088991008,-0.022348389361383548,0.14381609960808106,-1.4201665395065757
1.4428758647808735,11.412313569610362,-0.0215319998702351,0.13088909419838263,-1.3466551495693329
1.438658411842328,11.387406924441823,-0.0206425295152202,0.11817735748700633,-1.2651999890555239
1.4346271547529836,11.3650197918016,-0.01967004137822457,0.10569396891522642,-1.1755591980267435
1.4307999263386866,11.345105362486752,-0.018602242764745463,0.09345032423327043,-1.0776074599587184
1.4271973517963463,11.32761485631573,-0.017423502658656477,0.08145473747693627,-0.9713903197433758
1.4238436643536923,11.312498308452295,-0.016113371767882887,0.06971074115743223,-0.8571904977127123
1.4207678934658827,11.299705697140134,-0.014644337110214225,0.058215371964160406,-0.7356003505655135
1.418005624960562,11.289188342283591,-0.012978347942992267,0.046958176601265146,-0.6075850841433327
1.4156016768164947,11.280900279227339,-0.011061133497679902,0.03592245396127317,-0.4745076417860815
1.4136144018889736,11.274798868406371,-0.008811615777531102,0.02509165424840981,-0.3380733426769217
1.4121235659120441,11.270842929738073,-0.006096743991762607,0.014467732434558324,-0.20015148790800177
1.4112496956224008,11.268983088136046,-0.0026419589046727076,0.004130683585697827,-0.062460105198403726
