x,y,v_x,v_y,omega
2.375,32.48,0.0,3.5897435897435894,-6.530612244897959
2.3730352877853265,31.7365679942122,-0.018711544901651965,3.4905612272830515,-6.027032492880615
2.3674855026518276,31.01343709743188,-0.03414355160786152,3.396399694434294,-5.582301599161531
2.358980967876473,30.30959580893285,-0.04685201768123136,3.306850672223115,-5.187593727067773
2.3480459953822965,29.624113413112944,-0.05729057750140225,3.221553097490265,-4.835642947441083
2.3351181986211436,28.956130837093554,-0.06583129641433724,3.1401857217420366,-4.5204293683061225
2.3205639289475157,28.30485291228861,-0.07278079571545504,3.062461181162195,-4.236935922100957
2.304690694373533,27.669541761634612,-0.07839286689390361,2.988121206018752,-3.9809581974515322
2.287757209625734,27.049511101234167,-0.082878416418467,2.9169327025568803,-3.7489545284164185
2.269981573027955,26.444121293631916,-0.08641336070323705,2.848684512702667,-3.5379269360337178
2.25154795215675,25.852775025516607,-0.0891449333082397,2.783184707443116,-3.345325923554601
2.2326120751275873,25.274913509143023,-0.09119675268378516,2.7202583056386445,-3.168973862844914
2.213305759962012,24.710013126784062,-0.09267291555978907,2.659745335875282,-3.0070029773371574
2.1937406652817315,24.157582452844206,-0.0936613194905016,2.6014991778376304,-2.857804863188299
2.174011407675844,23.61715960013867,-0.09423637199414127,2.5453851336436575,-2.7199891886482903
2.154198161677716,23.08830984615219,-0.09446120894040916,2.491279190037114,-2.592349737305562
2.134368835312179,22.57062350247135,-0.09438951835042389,2.4390669402566063,-2.4738363598699213
2.1145808961132,22.063713996494688,-0.094067045449372,2.3886426404734933,-2.3635317043387647
2.0948829082345797,21.567216139303362,-0.09353283910891982,2.339908380396283,-2.2606318294891508
2.075315829929509,21.080784557472892,-0.09282028760603662,2.2927733513224693,-2.1644299889418703
2.0559141116130513,20.6040922698119,-0.09195798207451326,2.247153197829838,-2.074303015282641
2.0367066274511685,20.136829392669558,-0.09097043851484848,2.202969441621046,-1.989699845347265
2.0177174675614915,19.678701959669535,-0.08987870329159778,2.160148967902978,-1.9101318158492953
1.9989666131709631,19.229430843589057,-0.08870086233248065,2.1186235661968307,-1.8351644283761133
1.9804705132254148,18.788750769673612,-0.08745247048226662,2.078329518712155,-1.7644103384429843
1.9622425778074062,18.356409411013054,-0.0861469144511473,2.039207230435997,-1.6975233678598332
1.9442936011508174,17.9321665577445,-0.08479572037350905,2.001200895931177,-1.634193375502052
1.9266321249328227,17.51579335282503,-0.08340881503596471,1.964258198539998,-1.5741418505152684
1.9092647507880538,17.107071587959133,-0.08199474824754836,1.928330038278039,-1.5171181154462774
1.892196409555857,16.70579305399412,-0.0805608825352774,1.8933702851982597,-1.4628960458878992
1.8754305935835727,16.311758940728673,-0.07911355529600395,1.8593355554250806,-1.4112712288245444
1.8589695574217058,15.924779281630489,-0.07765821767415672,1.826185007414759,-1.3620584946532923
1.8428144914245008,15.54467243944013,-0.07619955372779336,1.7938801563029216,-1.315089768374803
1.8269656720824639,15.171264629059898,-0.07474158286303535,1.7623847044612144,-1.270212194130357
1.811422592338061,14.804389474497452,-0.0732877480360412,1.731664386609704,-1.2272864944496078
1.796184074652817,14.443887596960735,-0.07184099182342499,1.7016868280256852,-1.1861855315435488
1.7812483691875642,14.089606231489487,-0.07040382213136215,1.6724214145576402,-1.1467930429500401
1.7666132391147429,13.741398869764524,-0.06897836903836506,1.6438391732991657,-1.1090025279935114
1.752276034791829,13.399124926963086,-0.06756643403700648,1.6159126629050125,-1.0727162650006024
1.738233758279433,13.062649430730584,-0.06616953274771663,1.5886158726426407,-1.0378444421368462
1.7244831194791725,12.731842730519237,-0.06478893201666724,1.5619241293701982,-1.0043043871915975
1.7110205849891145,12.406580225705031,-0.06342568217436322,1.5358140117174695,-0.9720198837173393
1.697842420623465,12.086742111038415,-0.0620806451175348,1.5102632708217392,-0.9409205626892854
1.6849447284141519,11.77221313811324,-0.06075451878068515,1.4852507570370534,-0.9109413603444138
1.6723406311077569,11.462884937824153,-0.059284503184984044,1.4607321028590023,-0.8773485890634581
1.6600415557550887,11.15865309306789,-0.057849547792805926,1.4367140376768324,-0.8453384204661762
1.648040180999652,10.85941440852071,-0.05644925940182827,1.4131781961058383,-0.8148171543005012
1.6363292760266783,10.565069454497987,-0.05508316891220824,1.3901070803010616,-0.7856976928399283
1.624901715086389,10.275522390172807,-0.053750744804834744,1.367484008510169,-0.7578990019137416
1.6137504893789,9.990680797216747,-0.05245140479029777,1.3452930672618197,-0.7313456217923757
1.6028687166596776,9.710455523130726,-0.05118452586896361,1.323519066890774,-0.7059672227858872
1.5922496488773634,9.434760533593654,-0.04994945301021886,1.3021475001289693,-0.6816982009973771
1.5818866781150196,9.163512773210844,-0.04874550663114974,1.2811645035168282,-0.6584773101848298
1.5717733410704948,8.896632034093372,-0.04757198903099049,1.260556821411483,-0.6362473261338573
1.5619033222809513,8.634040831744347,-0.04642818991704305,1.2403117723887467,-0.6149547403385623
1.5522704562699658,8.375664287768885,-0.0453133911399632,1.220417217853748,-0.5945494801352406
1.542868728772473,8.12143001896164,-0.0442268707409215,1.200861532691439,-0.5749846527400426
1.5336922771726933,7.871268032359737,-0.04316790639983643,1.1816335778028582,-0.556216310912274
1.5247353902726637,7.625110625879877,-0.04213577836235071,1.162722674386286,-0.538203238204249
1.5159925074937277,7.382892294186707,-0.04112977191322897,1.144118579834389,-0.5209067519704607
1.5074582176000444,7.14454963946552,-0.04014917945518418,1.125811465129289,-0.50429052249667
1.4991272570215661,6.910021286796077,-0.03919330224460906,1.107791893627296,-0.4883204067763015
1.4909945078438223,6.679247803846149,-0.03826145182914077,1.090050801133939,-0.4729642956098061
1.4830549955230021,6.452171624623393,-0.03735295122629035,1.0725794771780108,-0.4581919728346381
1.475303886377114,6.2287369770426295,-0.03646713587740647,1.0553695474006775,-0.4439749856111357
1.4677364848972598,6.0088898140824085,-0.03560335440691893,1.0384129569823832,-0.4302865247945655
1.4603482309171647,5.79257774832044,-0.03476096921303546,1.0217019550363708,-0.41710131451738164
1.4531346966739547,5.579749989651788,-0.03393935691277307,1.0052290799031753,-0.4043955101896393
1.4460915837886739,5.370357286006975,-0.03313790866132972,0.9889871452855192,-0.3921466042006235
1.4392216017275636,5.164494730763177,-0.03229049192067186,0.9716086189411086,-0.40765806159104395
1.4325252260079713,4.962269559296416,-0.031484514932589976,0.9543453950280353,-0.4251292775714629
1.425993822860865,4.7636578969373,-0.030719324563659743,0.937194246487369,-0.44444603907465574
1.4196189032014659,4.568636533282973,-0.02999419600204526,0.9201520740300299,-0.4654972975481783
1.4133921369241207,4.377182895930172,-0.029308339972672234,0.90321590075855,-0.4881749172694753
1.407305365746104,4.189275025292684,-0.028660909341771255,0.8863828672175234,-0.5123734319835758
1.4013506147239014,4.004891550415163,-0.028051005155397074,0.8696502268541071,-0.5379898088647563
1.3955201025565462,3.824011665698869,-0.02747768215274688,0.8530153418725187,-0.5649232188340184
1.389806250782394,3.646615108458011,-0.026939953791561895,0.8364756794689908,-0.593074812287908
1.3842016919682245,3.4726821372279737,-0.026436796819574598,0.8200288084361227,-0.6223474993112015
1.378699276982772,3.3021935107487366,-0.02596715542283328,0.8036723961280374,-0.6526457334563324
1.3732920814406033,3.135130467548368,-0.02552994497877121,0.7874042057802423,-0.6838752981761034
1.3679734113967303,2.9714747060524758,-0.025124055439066366,0.7712220941806238,-0.7159430949931063
1.3627368083673417,2.811208365145994,-0.02474835436463601,0.7551240096906207,-0.7487569324791932
1.3575760537476418,2.6543140051135516,-0.024401689632505552,0.739107990618345,-0.7822253151010473
1.3524851726938938,2.500774588884056,-0.024082891831761148,0.7231721639482939,-0.81625723096307
1.3474584375334107,2.350573463503771,-0.02379077636331662,0.7073147444353584,-0.8507619374460308
1.342490370763406,2.2036943417602757,-0.023524145255775213,0.6915340340741349,-0.8856487436987343
1.3375757476972914,2.0601212838768888,-0.023281788707220735,0.6758284219581306,-0.9208267888897782
1.3327095988152011,1.9198386791938091,-0.023062486360306177,0.6601963845473829,-0.9562048150666651
1.3278872118742422,1.78283122774776,-0.022865008315494206,0.6446364863673539,-0.9916909333993529
1.3231041338332201,1.6490839216566755,-0.02268811588471502,0.6291473811667858,-1.0271923825039855
1.3183561726463988,1.5185820262095646,-0.02253056208501234,0.6137278135675978,-1.0626152774491497
1.3136393989812365,1.3913110605541412,-0.022391091868915084,0.5983766212459712,-1.0978643479406383
1.3089501479160477,1.2672567778658,-0.02226844208526401,0.5830927376906158,-1.1328426640603928
1.30428502067519,1.146405144871128,-0.02216134116100021,0.5678751955919623,-1.1674513478001138
1.2996408864617361,1.0287423205868613,-0.022068508490940917,0.5527231309248477,-1.2015892684790817
1.2950148844507154,0.9142546341210362,-0.021988653518779173,0.5376357877972869,-1.235152719968325
1.2904044260099625,0.8029285613666346,-0.021920474488391854,0.5226125241493873,-1.2680350774589813
1.2858071972204852,0.6947507003989983,-0.021862656839963492,0.507652818399535,-1.3001264313116074
1.2812211617741511,0.5897077453663044,-0.021813871220360482,0.4927562771499356,-1.3313131953061565
1.2766445643335014,0.4877864586370926,-0.02177277107154113,0.47792264408066176,-1.361477686381358
1.2720759344467703,0.38897364093963205,-0.021737989754468806,0.46315181018084856,-1.3904976727110874
1.2675140911208664,0.29325609919441575,-0.0217081371588999,0.44844382548785766,-1.418245886720291
1.262958148166333,0.20062061170249734,-0.02168179574141853,0.43379891253040787,-1.4445894994041597
1.2584075204413556,0.11105389030829826,-0.021657515925033177,0.41921748170008566,-1.4693895520969051
1.2538619311369752,0.02454253910499915,-0.021633810783350898,0.4047001488075025,-1.4925003416637392
1.2493214202630636,-0.058926990806831725,-0.021609149920570093,0.3902477551146887,-1.5137687549956291
1.2447863545146804,-0.1393684510621327,-0.021581952444984388,0.3758613901739116,-1.5330335487210018
1.24025743872157,-0.21679585090404885,-0.021550578917974128,0.3615424178443518,-1.5501245702844322
1.2357357291102684,-0.2912235178972793,-0.021513322142040908,0.34729250590068117,-1.5648619170845148
1.2312226486392503,-0.36266616528421736,-0.02146839662955991,0.33311365968921225,-1.5770550313633125
1.2267200047035596,-0.43113896688559805,-0.021413926567495217,0.31900826032392937,-1.5865017302166844
1.2222300095475958,-0.49665764055329475,-0.02134793206073066,0.30497910793981964,-1.592987172763657
1.2177553037746947,-0.5592385412920038,-0.021268313395469987,0.2910294705240476,-1.5962827706282905
1.2132989834020582,-0.6188987652721067,-0.02117283301059039,0.27716313881024895,-1.5961450541050155
1.2088646309826812,-0.6756562660475112,-0.021059094793001106,0.2633844876221419,-1.5923145156453122
1.2044563514069844,-0.7295299843521619,-0.020924520213634022,0.2496985438507265,-1.5845144659888526
1.200078813113284,-0.7805399928494268,-0.020766320678749936,0.23611106088510372,-1.5724499583448919
1.195737295589431,-0.828707657105916,-0.020581465262707335,0.2226285987004913,-1.5558068653682984
1.1914377442560642,-0.8740558137888428,-0.020366642674118633,0.20925860780354433,-1.534251236386697
1.1871868341138043,-0.916608966540899,-0.02011821582359405,0.19600951364462083,-1.5074291243181603
1.1829920439589643,-0.956393499015455,-0.019832166603454462,0.18289079563687188,-1.4749671613308781
1.1788617436005653,-0.9934379029286404,-0.019504027286058913,0.1699130511553703,-1.4364742911651365
1.1748052974689143,-1.0277730163712917,-0.019128793015380154,0.15708802925083712,-1.3915452498195309
1.170833189494257,-1.0594322635514146,-0.018700806743260814,0.14442861055984732,-1.339766644839078
1.166957176482444,-1.0884518809699415,-0.01821360289305283,0.13194869818802155,-1.2807268389008397
1.1631904809593285,-1.1148711059758867,-0.017659687803285848,0.11966296853528488,-1.2140313130595979
1.1595480404628868,-1.1387322908757938,-0.017030221686635753,0.10758641146383408,-1.139325761436687
1.156046839913001,-1.1600808888391327,-0.016314545455134097,0.09573356913942298,-1.0563297727906213
1.1527063691499817,-1.1789652377279722,-0.015499461811716011,0.0841173726590386,-0.9648843323454137
1.1495492723593097,-1.1954360494371556,-0.01456812667087443,0.0727475007617249,-0.8650159110413956
1.1466022951823363,-1.209545508477575,-0.013498322633634107,0.06162829962319381,-0.7570173205889705
1.143897698219688,-1.2213459235527608,-0.012259743677300585,0.050756605854741677,-0.6415386212703108
1.1414754141616923,-1.2308880152269452,-0.010809628303611166,0.04012045770889741,-0.5196675822671325
1.139386449475016,-1.2382192546174267,-0.00908527347425648,0.02970086981948894,-0.39295825951776453
1.1376986454573887,-1.2433833654432718,-0.0069890505031459105,0.019481138045672253,-0.2633461568612575
1.136508260821831,-1.2464238239968424,-0.0043479460259753765,0.00947561008356269,-0.1328884929034952
1.1359755867127332,-1.2474029771578685,-0.0007251407273371284,-0.00015034188333692966,-0.003353039259171603
