x,y,v_x,v_y,omega
2.375,32.48,0.0,2.6666666666666665,-4.6938775510204085
2.3741792564321726,31.978566874953675,-0.008639405977130463,2.611576754873566,-4.440732670049351
2.371821159951929,31.487422895614593,-0.016182662235959527,2.5583598697483363,-4.2076316321805605
2.368121492820768,31.006222284601748,-0.022761202302575254,2.5069097198605657,-3.9924840669738515
2.3632526946410217,30.534638650180405,-0.028489304852651977,2.457128537206196,-3.793460120492438
2.357366885672446,30.07236345530266,-0.03346657902709196,2.408926145717454,-3.608953160458249
2.3505984559847546,29.61910465105034,-0.03778004926439492,2.3622191622016935,-3.4375485005878086
2.343066289718938,29.174585451516784,-0.041505911428413575,2.3169303065725817,-3.2779970605958377
2.3348756814507903,28.738543231113074,-0.04471101770998232,2.2729878029401647,-3.129193094328753
2.326119991787542,28.310728528441413,-0.04745413663999798,2.230324856761537,-2.9901552870868353
2.316882081355735,27.890904143420997,-0.049787025800074616,2.1888791960849545,-2.86001065577724
2.3072355558551587,27.4788443164145,-0.051755347890204584,2.1485926671413274,-2.737980790515635
2.2972458495528274,27.074333979788342,-0.05339945529223245,2.109410876291883,-2.6233700599380363
2.286971170235286,26.677168073725614,-0.05475506383977872,2.0712828717368477,-2.5155554695241187
2.2764633250419286,26.287150919257357,-0.055853832932407387,2.0341608595079848,-2.41397791626018
2.2657684436211745,25.90409564243305,-0.05672386623342501,1.9979999491689227,-2.3181346267332663
2.2549276125703774,25.527823644351088,-0.05739014482759442,1.962757925378057,-2.227572601367776
2.243977433047713,25.158164112443984,-0.05787490277940133,1.928395042065131,-2.1418829166381683
2.232950511706857,24.7949535689839,-0.058197953440136764,1.8948738364620528,-2.0606957610023504
2.2218758936440492,24.43803545325992,-0.05837697353678812,1.8621589606324882,-1.9836761000109795
2.210779444814456,24.08725973429423,-0.05842775098524556,1.8302170284800545,-1.9105198823574916
2.199684190331871,23.74248255132163,-0.05836440146301236,1.7990164764946606,-1.8409507121773312
2.188610614181063,23.403565879565182,-0.05819955801917968,1.7685274367311112,-1.7747169241898988
2.1775769251195527,23.07037721910811,-0.057944537365141366,1.7387216207117455,-1.7115890077102178
2.1665992929039692,22.742789304894835,-0.05760948595678645,1.7095722131122166,-1.6513573334673515
2.155692058427706,22.42067983609715,-0.05720350853019858,1.6810537742318312,-1.593830143818748
2.1448679208868118,22.103931223259842,-0.05673478137394839,1.653142150371405,-1.5388317725597542
2.1341381046877657,21.792430351796703,-0.05621065230022317,1.6258143913458285,-1.4862010652715552
2.1235125084637954,21.486068360546263,-0.055637729004728444,1.599048674448287,-1.4357899751728875
2.1129998382673505,21.184740434218917,-0.05502195727363842,1.5728242342606331,-1.387462312859394
2.1026077267480106,20.888345608675845,-0.05436869029835741,1.547121297771689,-1.3410926312270175
2.092342839901608,20.596786588076775,-0.05368275019008826,1.5219210243237995,-1.2965652293630237
2.082210972782588,20.3099695730199,-0.05296848264170436,1.4972054499590748,-1.2537732613169523
2.0722246088497576,20.02780679322765,-0.05215113770387753,1.472929074169878,-1.2099977460705693
2.0623943042799633,19.750213513302533,-0.051325752504487204,1.449105451357673,-1.1681568302755605
2.05272135700965,19.477105203861903,-0.050494745077757336,1.425718858543688,-1.1281426174811517
2.0432066313874118,19.20840025660575,-0.049660261472118314,1.402754270468477,-1.0898543669576848
2.0338506071873237,18.944019855473066,-0.048824203791965975,1.3801973204018727,-1.0531979434333691
2.02465342357573,18.683887854994005,-0.04798825527744263,1.3580342635882263,-1.0180853148136242
2.015614918562944,18.427930665356808,-0.04715390275187846,1.336251943119118,-0.984434093212017
2.0067346644123982,18.176077143746255,-0.04632245672755218,1.3148377580445678,-0.9521671151232531
1.998011999427777,17.928258491544707,-0.04549506942635625,1.2937796335507021,-0.921212057011323
1.9894460564927712,17.684408157017923,-0.04467275094212741,1.2730659930470236,-0.8915010829772313
1.9810357886974688,17.444461743136547,-0.04385638374526516,1.2526857320201032,-0.8629705215171831
1.9727799923494729,17.208356920209965,-0.04304673570732347,1.2326281935228405,-0.8355605686892514
1.9646773276359817,16.97603334303324,-0.04224447180310954,1.2128831451795483,-0.809215015279231
1.9567263371748271,16.747432572269453,-0.04145016463009745,1.1934407575971757,-0.7838809957987909
1.948925462667379,16.52249799980992,-0.04066430386935469,1.1742915840820705,-0.75950875736481
1.9412730598439407,16.301174777872983,-0.039887304798417726,1.1554265415699259,-0.7360514467010901
1.9337674118724224,16.083409751618856,-0.039119515954406846,1.1368368926840358,-0.7134649136752519
1.9264067413834345,15.869151395073715,-0.03836122603493943,1.1185142288437684,-0.6917075299369445
1.9191892212491988,15.658349750170178,-0.037612670114909874,1.1004504543513554,-0.6707400213606529
1.9121129842396463,15.450956368724682,-0.03687403524880174,1.082637771390713,-0.6505253131192122
1.9051761316665385,15.246924257184236,-0.03614546552075149,1.0650686658771453,-0.6310283863242597
1.8983767411152594,15.046207823986268,-0.035427066597977445,1.0477358941014583,-0.6122161452686967
1.8917128733539057,14.848762829385581,-0.03471890983732317,1.0306324701162912,-0.5940572943950442
1.8851825785003622,14.654546337611976,-0.03402103598945194,1.0137516538163838,-0.5765222241934606
1.8787839015200078,14.463516671230952,-0.033333458540593004,0.9970869396680778,-0.5595829053051232
1.8725202451642098,14.275838100351603,-0.032599766257281906,0.9784769643250544,-0.586037791591126
1.8663920235711489,14.091684875073991,-0.03190782945914832,0.9599780385971733,-0.614062984050972
1.8603914038274492,13.911036173173976,-0.03125658889558562,0.9415872445608878,-0.6435465737574072
1.8545107585770109,13.733871715763069,-0.03064494005639523,0.923301780817084,-0.6743788452652548
1.8487426741421356,13.560171745505738,-0.030071738205450463,0.9051189587337564,-0.706452032251693
1.8430799577326304,13.389917005512448,-0.02953580294723601,0.8870361990903419,-0.7396600771148782
1.8375156438287277,13.223088718832749,-0.02903592235700374,0.8690510291170187,-0.773898393513309
1.8320429998181065,13.059668568473747,-0.028570856702166157,0.8511610799250999,-0.8090636308249067
1.8266555309623425,12.899638677869742,-0.028139341779561244,0.8333640843275771,-0.8450534394936203
1.8213469847637018,12.74298159172869,-0.027740091890341774,0.8156578750519076,-0.8817662362121502
1.8161113547993322,12.589680257180476,-0.027371802471442802,0.7980403833503525,-0.9191009678617962
1.8109428840865605,12.439718005150617,-0.02703315239983858,0.780509638016599,-0.9569568730940015
1.8058360680401824,12.293078531881036,-0.026722805983088016,0.7630637648210818,-0.9952332403923777
1.8007856570803278,12.149745880516797,-0.02643941464696014,0.7457009863814372,-1.0338291613982153
1.7957866589476876,12.009704422674115,-0.026181618328199673,0.7284196224889063,-1.0726432782160131
1.7908343407816263,11.872938839900613,-0.025948046577708644,0.7112180909163677,-1.1115735233375945
1.7859242310159715,11.739434104933345,-0.025737319376551774,0.6940949087390674,-1.1505168507330286
1.7810521211470993,11.609175462653642,-0.02554804766420752,0.6770486942051546,-1.189368956552898
1.7762140674293418,11.48214841063016,-0.02537883357534657,0.6600781691999084,-1.2280239877684336
1.7714063925537658,11.358338679132423,-0.025228270378085442,0.6431821623552001,-1.2663742369426376
1.766625687368054,11.23773221048656,-0.025094942103090555,0.6263596128644031,-1.3043098211757407
1.7618688126976008,11.120315137632524,-0.024977422849048827,0.609609575072815,-1.3417183431012594
1.7571329013310883,11.006073761727745,-0.024874275745820375,0.5929312239248719,-1.3784845316238419
1.7524153602377965,10.894994528625471,-0.024784051551985806,0.5763238613622291,-1.414489859886647
1.7477138730888075,10.787064004036829,-0.024705286858426254,0.5597869237813852,-1.449612137734422
1.7430264031601816,10.682268847163357,-0.024636501863950565,0.5433199906762076,-1.4837250756998694
1.738351196703248,10.58059578256119,-0.02457619768272121,0.526922794609762,-1.5166978172878105
1.733686786875448,10.482031569968516,-0.02452285313622578,0.5105952326815554,-1.5483944360685715
1.7290319983349125,10.386562971794074,-0.02447492097467384,0.49433737968100233,-1.5786733938264406
1.7243859526132548,10.294176717925517,-0.02443082346382762,0.4781495031459109,-1.6073869557527
1.7197480743941846,10.204859467471902,-0.024388947263229023,0.4620320805763342,-1.634380558443595
1.715118098840694,10.118597767003656,-0.024347637510355492,0.445985819089423,-1.659492126288447
1.710496080131055,10.035378004795366,-0.024305191012161564,0.43001167783995,-1.6825513317514922
1.7058824013840113,9.955186360511071,-0.02425984843040261,0.41411089357367525,-1.7033787951206096
1.701277786176807,9.87800874969761,-0.024209785329643397,0.3982850097259085,-1.7217852196006402
1.6966833118865412,9.803830762368875,-0.024153101936310987,0.38253590952394595,-1.7375704582894786
1.692100425116486,9.732637594872411,-0.024087811432691328,0.3668658535967227,-1.750522510766042
1.6875309595052679,9.664413974130557,-0.024011826580133164,0.3512775226333284,-1.7604164489918275
1.6829771562593963,9.599144073243039,-0.023922944429042272,0.3357740656563194,-1.7670132753439192
1.6784416878001018,9.536811417330672,-0.02381882882668789,0.32035915447386454,-1.770058720378213
1.673927684976129,9.477398778397028,-0.023696990373024734,0.3050370448276517,-1.7692819951188017
1.6694387683683751,9.420888057898384,-0.023554763392805052,0.2898126446317527,-1.7643945233673723
1.6649790843051147,9.367260155660023,-0.023389279378357816,0.27469158945625016,-1.755088695291162
1.6605533463257238,9.316494823788588,-0.023197436194178377,0.25968032497991417,-1.7410367066411312
1.6561668829883565,9.268570504351043,-0.022975862093897948,0.2447861954153083,-1.7218895816360902
1.651825693131936,9.223464149891008,-0.02272087323684607,0.23001753574294703,-1.6972765265154992
1.6475365100054749,9.181151026439174,-0.022428422831163346,0.21538376375003784,-1.666804831719118
1.643306876117081,9.141604499705906,-0.02209403915193185,0.2008954650212118,-1.6300606430703068
1.6391452313103798,9.10479580685734,-0.02171274828702661,0.1865644597005326,-1.5866110693437285
1.635061017576846,9.070693819013766,-0.02127897522385465,0.17240383338972026,-1.5360083027296092
1.631064805669666,9.039264803853058,-0.020786413272779504,0.15842790514404317,-1.477796721919276
1.6271684510425457,9.010472204098651,-0.020227845960066423,0.14465209227075054,-1.411524348696066
1.6233852905543273,8.98427645701275,-0.019594896021177817,0.13109261389661003,-1.336760554837748
1.6197303976575514,8.960634893094095,-0.018877660786988326,0.11776595366818786,-1.253122552555787
1.6162209238562906,8.939501769334829,-0.018064168699969643,0.10468798063988917,-1.1603138469633434
1.6128765703098134,8.920828512369862,-0.017139552841896298,0.09187261899132776,-1.0581781753961703
1.6097202590247752,8.904564264318342,-0.016084776474293107,0.0793299920773191,-0.9467717715288859
1.6067791135844165,8.890656824848097,-0.014874649213693693,0.06706410760946035,-0.826453586654502
1.6040859246875503,8.879054036025732,-0.01347470759542594,0.0550705115733505,-0.6979849175495267
1.601681389708197,8.8697055040724,-0.01183618692408286,0.04333508793541926,-0.5626140003170528
1.5996176559750381,8.86256419808825,-0.009887326056537981,0.03183655400298922,-0.4220978773660302
1.5979643773952086,8.857586724338155,-0.007515606362721052,0.020557906524344263,-0.27859318191774674
1.596821180126068,8.85472917176249,-0.004518049101914983,0.009521594272128722,-0.13435127619143283
1.5963585139841876,8.853924671064952,-0.0003521208126156623,-0.0010531658769880898,0.00871926078064117
