x,y,v_x,v_y,omega
2.375,32.48,0.0,3.282051282051282,-5.673469387755102
2.3735996362928744,31.831720774321305,-0.014003637071254927,3.2007409747356483,-5.288392401543904
2.369616901824345,31.199346038339495,-0.025823707614038172,3.123006385082447,-4.9425988507352105
2.3634557647307286,30.582186106328717,-0.03578766332212731,3.0485929350253174,-4.630904531285502
2.355460040132573,29.979599642586006,-0.04416958265942774,2.977271702401802,-4.34893479499985
2.34592310354493,29.390988881455538,-0.051199783217002554,2.908835908902869,-4.092980264689448
2.3350958733895637,28.81579548752113,-0.05707251833666231,2.843098030441226,-3.8598813770317726
2.3231934035238404,28.253496944949735,-0.0619521803205689,2.779887395272706,-3.6469353639337463
2.3104003525246153,27.70360338853464,-0.06597832967168109,2.719048168878271,-3.451820842703559
2.2968755401018663,27.165654806752908,-0.06926979455580885,2.660437648939028,-3.272536328215101
2.2827557577551594,26.639218560706833,-0.07192802891126272,2.6039248115217104,-3.107349827550684
2.268158967281125,26.12388717327998,-0.07403987582907941,2.5493890627468367,-2.9547573123998228
2.2531869945818284,25.619276351000252,-0.07567985116388619,2.496719160050419,-2.8134483446323877
2.2379278056525522,25.125023207536447,-0.07691203812887751,2.4458122745876527,-2.6822774968073535
2.2224574353430246,24.640784662876925,-0.07779166496639602,2.3965731720075594,-2.560240491134714
2.206841626517525,24.16623599635524,-0.07836642328860388,2.3489134932092948,-2.4464541987058466
2.191137226854349,23.70106953502401,-0.07867757334315291,2.302751120102998,-2.340139811090684
2.175393382166754,23.244993461605766,-0.07876087353280037,2.2580096140794716,-2.240608630067906
2.1596525583683728,22.797730728495953,-0.07864736445100862,2.2146177170186427,-2.1472500267970047
2.1439514187162207,22.3590180661575,-0.07836403207051407,2.1725089063658847,-2.0595212055341903
2.1283215784869483,21.928605075803482,-0.07793437022220855,2.1316209971743065,-1.976938473862467
2.1127902555761673,21.5062533975738,-0.07737885888560309,2.0918957851224826,-1.899069775027213
2.097380832498253,21.091735946518973,-0.0767153718935388,2.0532787254257796,-1.825528281163548
2.082113342780045,20.684836209645653,-0.07595952528854392,2.01571864330742,-1.7559668811488995
2.067004892686787,20.285347598083405,-0.0751249756440342,1.9791674723150692,-1.6900734252048186
2.0520700275131363,19.893072849123385,-0.07422367609247267,1.9435800172851483,-1.627566611526777
2.0373210502523484,19.507823473475877,-0.07326609651540746,1.9089137391899096,-1.5681924191757686
2.0227682992715845,19.129419243610187,-0.07226141329222707,1.8751285594670113,-1.5117210070382696
2.0084203906291624,18.757687719489468,-0.07121767313199669,1.8421866817401698,-1.4579440114989428
1.9942844298368483,18.392463808405225,-0.07014193479114425,1.8100524291022269,-1.4066721860885703
1.98036619716961,18.03358935595935,-0.06904039188123949,1.7786920953565135,-1.3577333351797107
1.9666703100341574,17.68091276554319,-0.06791847947328641,1.7480738088050711,-1.310970501134672
1.9532003654078505,17.334288643928858,-0.06678096678978336,1.7181674073382724,-1.2662403704304708
1.939959064936004,16.993577470822643,-0.06563203792868132,1.6889443237238857,-1.2234118694083813
1.926948324915894,16.65864529043844,-0.06447536227241825,1.6603774801181255,-1.1823649245956958
1.9141693730895768,16.329363423333668,-0.06331415599075274,1.6324411909295844,-1.1429893661662294
1.901622833906476,16.005608196914554,-0.06215123584025565,1.605111073261544,-1.1051839561596188
1.889308803693494,15.687260693164301,-0.0609890662895644,1.578363964240976,-1.0688555256623686
1.8772269169792843,15.374206512278679,-0.059829800852532616,1.5521778446152579,-1.0339182073437132
1.8653764050553483,15.06633555101099,-0.05867531838682863,1.526531768061619,-1.0002927516007958
1.8537561477156932,14.763541794633749,-0.05752725500972206,1.5014057957107954,-0.9679059161533596
1.8423647189954466,14.46572312151904,-0.05638703219274289,1.476780935436301,-0.9366899202819647
1.8312121874508527,14.172783427057087,-0.05513828325319614,1.4526160091832168,-0.9032371783051333
1.8203070773029602,13.88462999944888,-0.05391281822573029,1.428918266898873,-0.8713004598267947
1.809644708502468,13.601171059526877,-0.05271086977918956,1.4056711323211661,-0.8407932036672349
1.7992203653095977,13.32231806810109,-0.051532562149514356,1.382858781936681,-0.8116347281590919
1.789029316503266,13.047985579713444,-0.05037792591380043,1.3604661019397648,-0.7837497682948276
1.7790668328151429,12.77809110470707,-0.049246910967431896,1.3384786481239823,-0.7570680541733771
1.7693282019260144,12.512554979047337,-0.04813939792385177,1.3168826084733307,-0.731523926635667
1.7598087413207621,12.25130024137584,-0.04705520812867253,1.2956647682416411,-0.7070559864292447
1.7505038092623268,11.994252516818925,-0.045994112455679734,1.2748124773275107,-0.6836067736389625
1.7414088141136266,11.741339907109264,-0.04495583903132333,1.2543136197691118,-0.6611224744704762
1.7325192222088863,11.4924928866125,-0.04394008001607965,1.2341565851985508,-0.6395526527822368
1.723830564451756,11.24764420388172,-0.04294649755522368,1.2143302421092597,-0.6188500040348498
1.7153384417964583,11.006728788390554,-0.041974728997752536,1.194823912802389,-0.5989701295686174
1.7070385297496662,10.76968366212137,-0.041024391470169216,1.1756273498894527,-0.5798713293346325
1.6989265820145159,10.536447855708555,-0.04009508588133347,1.1567307142386927,-0.5615144113953112
1.6909984333838417,10.306962328858496,-0.03918640042540999,1.1381245542618954,-0.5438625166796497
1.6832500019771088,10.081169894787628,-0.0382979136419172,1.1197997864467983,-0.5268809576292988
1.675677290904432,9.85901514843816,-0.03742919708485219,1.1017476770478623,-0.5105370695059814
1.6682763894312758,9.640444398247862,-0.03657981764670802,1.0839598248551332,-0.49480007325074665
1.6610434737088253,9.425405601265624,-0.035749339577797086,1.0664281449672466,-0.4796409488927545
1.6539748071273905,9.21384830141886,-0.034937326236550374,1.0491448535003902,-0.4650323186011825
1.6470667403435062,9.00572357075179,-0.0341433416022941,1.032102453170309,-0.45094833855972877
1.6403157110254427,8.800983953465835,-0.03336695157833905,1.01529371968924,-0.4373645989201885
1.6337182433566098,8.599583412604506,-0.03260772510999109,0.9987116889240606,-0.4242580311606993
1.6272774168360338,8.401650475487141,-0.03180054009576839,0.9806176822495722,-0.4462500750360646
1.6209936728219425,8.207324937735859,-0.03103690004514316,0.9626376952632504,-0.4700195408191312
1.6148583962566527,8.016584306013492,-0.03031586560775644,0.9447686219604176,-0.4954530205376727
1.6088631654606884,7.829406695916639,-0.029636442351885475,0.927007479008122,-0.522439835394049
1.6029997625471917,7.645770807907127,-0.028997586783080533,0.9093514010869803,-0.5508717862337186
1.597260182686174,7.465655904133577,-0.028398211827097918,0.8917976366485066,-0.5806429103901993
1.5916366423219506,7.289041786061272,-0.027837191815135123,0.8743435440745311,-0.6116492438945653
1.5861215864398466,7.11590877283102,-0.027313367005905958,0.8569865882279852,-0.643788588052748
1.5807076949716743,6.946237680269519,-0.0268255476758181,0.8397243373870068,-0.6769602794018298
1.5753878884235517,6.780009800475117,-0.02637251780540692,0.8225544605570282,-0.7110649620570803
1.5701553328042899,6.617206881903584,-0.025953038387211993,0.8054747251582903,-0.7460043614545526
1.5650034439278255,6.457811109878847,-0.02556585037743186,0.7884829950891016,-0.7816810584793883
1.559925891158989,6.301805087453118,-0.02520967731093332,0.7715772291681811,-0.8179982629472574
1.5549166006682458,6.149171816540036,-0.02488322759649952,0.7547554799626276,-0.8548595853751932
1.5499697582579408,5.999894679242626,-0.024585196506550975,0.7380158930114863,-0.8921688059379649
1.5450798118199915,5.853957419295618,-0.02431426787293976,0.7213567064585994,-0.9298296394564985
1.5402414734829204,5.71134412353851,-0.024069115497772783,0.7047762511124811,-0.967745495205028
1.5354497215045895,5.57203920333172,-0.023848404285536896,0.6882729509554242,-1.0058192302528597
1.5306998019660312,5.436027375823279,-0.023650791100046913,0.6718453241289923,-1.0439528949740196
1.5259872303213378,5.303293644967521,-0.023474925346885327,0.6554919844285818,-1.0820474692626567
1.5213077928587477,5.173823282190071,-0.023319449279014547,0.6392116433459306,-1.1200025878829003
1.5166575481288382,5.047601806584932,-0.02318299802008141,0.6230031127054468,-1.1577162532578067
1.5120328283971745,4.924614964519574,-0.023064199296557286,0.6068653079481399,-1.1950845338620126
1.5074302411808966,4.804848708512168,-0.022961672866219623,0.5907972521259237,-1.232001246225655
1.5028466709316217,4.688289175231645,-0.02287402962653045,0.5747980806793018,-1.2683576183820597
1.498279280930754,4.574922662455403,-0.02279987038214697,0.5588670470831232,-1.3040419323979262
1.493725515467935,4.464735604801245,-0.022737784246043977,0.5430035294584544,-1.3389391434119087
1.489183102378984,4.3577145480290085,-0.022686346643464205,0.5272070382638909,-1.3729304723759252
1.4846500560264317,4.253846121682908,-0.022644116882057433,0.5114772251971068,-1.4058929694445732
1.4801246808137236,4.1531170098174535,-0.02260963524502648,0.4958138934574351,-1.4376990446945328
1.475605575333545,4.055513919517402,-0.022581419556757385,0.48021700954308727,-1.468215962582956
1.4710916372616551,3.9610235468848316,-0.022557961162142506,0.464686716782611,-1.4973052962800297
1.4665820691202953,3.869632540123604,-0.022537720251455444,0.44922335082965786,-1.5248223377494785
1.4620763850499476,3.7813274593023003,-0.022519120452019842,0.4338274573833649,-1.5506154592220762
1.4575744187451656,3.696094732320585,-0.022500542595801892,0.4184998124338008,-1.5745254215416362
1.4530763327297693,3.61392060653991,-0.022480317558159647,0.4032414453729572,-1.5963846248054079
1.448582629169261,3.5347910954669857,-0.022456718046925016,0.38805366535628116,-1.6160162968370346
1.4440941624443413,3.458691919796678,-0.022427949202272906,0.37293809134678785,-1.6332336154159521
1.439612153739539,3.3856084420298522,-0.02239213784574916,0.3578966863214686,-1.6478387609810856
1.435138207935925,3.3155255937812385,-0.022347320190391647,0.3429317961646731,-1.6596218979297475
1.4306743331377225,3.248427794783794,-0.02229142779163135,0.3280461938097682,-1.668360084935076
1.4262229632107175,3.184298862481864,-0.02222227147841907,0.3132431292095284,-1.6738161183269313
1.4217869837676314,3.1231219109906228,-0.022137522952442115,0.29852638570287826,-1.6757373181291293
1.417369762104871,3.06487923809253,-0.022034693675161428,0.28390034327804997,-1.6738542746994687
1.4129751816804073,3.00955219885725,-0.0219111105694767,0.269370049074751,-1.6678795863525195
1.4086076818302642,2.9571210644331245,-0.02176388793195383,0.25494129516651776,-1.6575066367064577
1.4042723035609188,2.907564864602797,-0.021589894761498613,0.24062070313675785,-1.6424084874635443
1.3999747424421056,2.8608612128807565,-0.02138571642663419,0.22641581408364903,-1.6222370017871164
1.3957214098834694,2.8169861133450134,-0.021147609159726757,0.21233518127378748,-1.5966223709669582
1.3915195044485047,2.7759137491739523,-0.020871445189920956,0.1983884604368069,-1.5651733006667226
1.3873770954040707,2.7376162542049443,-0.02055264525441882,0.1845864892532813,-1.5274782340000206
1.3833032215278414,2.7020634710423828,-0.02018609350787498,0.1709413423723343,-1.4831081624999205
1.3793080094704355,2.6692227027504494,-0.01976602706618218,0.15746634054699135,-1.4316218231313607
1.3754028179747428,2.639058470568795,-0.01928588789074548,0.1441759812695533,-1.3725744244203748
1.371600417452636,2.611532298170104,-0.01873811733032249,0.13108574271733764,-1.3055315115718866
1.3679152195591402,2.5866025546405815,-0.01811386160463507,0.11821169257787309,-1.2300901779134312
1.3643635796954285,2.564224404359514,-0.017402537032480354,0.10556981023279759,-1.1459105142749615
1.3609642087339449,2.5443499321108725,-0.0165911725823558,0.09317491225363522,-1.052760777836854
1.3577387516879933,2.5269285331521303,-0.015663397877159875,0.08103907733379105,-0.9505797677984178
1.3547126252200856,2.5119076710864334,-0.014597866801917285,0.06916954332319455,-0.8395582236885627
1.351916260586732,2.4992340882053625,-0.01336577953161868,0.05756628548751501,-0.7202356622422076
1.349386989894953,2.488855456645389,-0.011926927386170988,0.046220030112225585,-0.5935969895738399
1.347171987308035,2.4807222018099218,-0.010223098483009601,0.03511251824245839,-0.4611324803870268
1.3453331038313767,2.4747886717971603,-0.008165736283573177,0.024222781885158265,-0.32479981962078436
1.3439558849000308,2.471011583122074,-0.005606453029885713,0.01354810486570912,-0.18681525915989786
1.3431724502364701,2.469339114701153,-0.0022278936057202672,0.0031765793434840265,-0.04923479223969665
