x,y,v_x,v_y,omega
2.375,32.48,0.0,3.8974358974358974,-3.959183673469388
2.3734110532224806,31.597885575707796,-0.013816928500169065,3.7731243138006265,-3.5995772362076726
2.368972138021395,30.743523915158093,-0.02478233411796459,3.6561075170663475,-3.2896491125176777
2.3622736831137714,29.915312832702554,-0.03346509986137315,3.545727982547032,-3.0206873814064257
2.3537893205233082,29.11179218926069,-0.040311966142655496,3.441408047382219,-2.7857615908213678
2.343900695575896,28.331626959292166,-0.045676076878316485,3.342637430604968,-2.5793131792506085
2.3329165439907436,27.573592887397503,-0.04983828473170843,3.2489631945660267,-2.3968496934305916
2.321087473350891,26.836564239963316,-0.05302319909309651,3.1599815657312433,-2.2347141683738734
2.3086174972032687,26.119503272317125,-0.05541137610361676,3.0753311964095356,-2.0899095608947156
2.2956730941821712,25.421451115304414,-0.05714865016679683,2.994687560222719,-1.9599639308157442
2.28239036660747,24.741519846952308,-0.05835332874364895,2.917758251534753,-1.8428260725633931
2.2688807294519426,24.07888556141012,-0.05912177695659008,2.8442790140494676,-1.7367841055257536
2.2552354554465133,23.432782282979137,-0.05953277961235908,2.774010363611266,-1.6404015188791334
2.2415293244247416,22.802496600710178,-0.05965096840304869,2.7067346995970873,-1.5524665897096692
2.2278235671553634,22.187362920810152,-0.059529529591541654,2.642253821272697,-1.471952122628826
2.2141682504898563,21.586759251411618,-0.059212354456347725,2.580386782192824,-1.39798321060627
2.2006042178286727,21.00010344817187,-0.05873575564090253,2.5209680285875935,-1.3298112701927491
2.1871646739318567,20.426849860448883,-0.05812984346184483,2.4638457776992637,-1.266793015205509
2.173876483971901,19.86648632702212,-0.057419634450809574,2.4088805999247453,-1.2083733403512587
2.1607612419913225,19.318531477918008,-0.05662594798900448,2.3559441748936045,-1.1540713178970126
2.147836152511534,18.78253230519128,-0.05576613444394061,2.3049181966431798,-1.1034686862353256
2.1351147601478098,18.258061970758522,-0.05485466871887691,2.2556934071199226,-1.0562003433823186
2.1226075551238655,17.744717823776764,-0.053903635837164274,2.2081687405475416,-1.0119464615480307
2.1103224771030624,17.24211960376344,-0.052923129561121794,2.1622505639161416,-0.970425918598476
2.0982653354247316,16.74990780878848,-0.05192158068523264,2.117852001083512,-0.9313908041539859
2.0864401603976326,16.267742210732976,-0.05090602824606304,2.0748923298339186,-0.8946218064539003
2.0748494975627216,15.795300501881865,-0.04988234423142335,2.033296442784431,-0.85992432411864
2.0634946546439776,15.332277059064658,-0.0488554202793938,1.99299436432172,-0.8271251769328931
2.052375909143214,14.878381813231165,-0.04782932320550481,1.953920816839106,-0.7960698135581838
2.0414926831127147,14.433339213791651,-0.04680742488579428,1.9160148304610156,-0.7666199330306109
2.03084369048817,13.996887278298416,-0.04579251097981183,1.8792193912192792,-0.7386514520601606
2.0204270614290074,13.56877671912794,-0.044786872143342704,1.843481123306624,-0.7120527623299647
2.010240447350733,13.148770139764068,-0.04379238071121722,1.8087500015966185,-0.6867232318224618
2.0002811097104147,12.73664129410373,-0.04281055529155005,1.7749790911019672,-0.6625719121605547
1.9905459950950048,12.332174402924402,-0.04184261527723101,1.7421243104574144,-0.6395164204249765
1.9810317987414692,11.93516352228172,-0.04088952692742742,1.7101442168702692,-0.6174819691916966
1.971735018270571,11.54541195915834,-0.039952042384730116,1.6789998102895591,-0.5964005228596774
1.962651999129002,11.162731730171725,-0.03903073275934979,1.6486543548114374,-0.5762100618949203
1.9537789729963615,10.786943059577883,-0.03812601622013195,1.6190732155698102,-0.5568539395486497
1.945112090215431,10.417873913187677,-0.03723818187491462,1.59022370956241,-0.5382803180329365
1.936647447139078,10.055359565148631,-0.036367410093372944,1.5620749690379918,-0.5204416731498601
1.9283811091491831,9.699242194843542,-0.03551378981875675,1.5345978162236487,-0.5032943580457612
1.9203091299874624,9.349370511422691,-0.03467733332664076,1.5077646483055003,-0.48679821816093044
1.9124275679411047,9.005599403722773,-0.03385798881560085,1.4815493316938064,-0.4709162506162545
1.9047454243874802,8.66779045901195,-0.03294325947678672,1.4559197527481171,-0.4523273029159446
1.8972706189910342,8.335810749053216,-0.03205504831839432,1.4308603338495687,-0.43468044170975945
1.8899971241108524,8.009531704656354,-0.031192733248404877,1.406348747862276,-0.41791583382616165
1.8829190579278545,7.688829762174063,-0.030355668342881646,1.382363795461986,-0.4019781665119191
1.8760306890614524,7.373586112285036,-0.029543191364961086,1.3588853340078253,-0.3868162522328578
1.8693264395971827,7.063686464524103,-0.02875463006347144,1.3358942117394297,-0.3723826725890675
1.862800886785171,6.759020826387676,-0.027989307432282562,1.3133722068382077,-0.35863345703229854
1.8564487636307392,6.459483295943556,-0.027246546084516404,1.2913019709367441,-0.34552779259614197
1.8502649585656337,6.1649718669652565,-0.026525671872921888,1.2696669767006568,-0.3330277613034202
1.8442445143603847,5.875388245693216,-0.025826016868375115,1.2484514691431585,-0.32109810230988445
1.8383826264144354,5.590637678399812,-0.025146921792052492,1.2276404203646911,-0.3097059961871289
1.8326746405403185,5.310628789002422,-0.02448773798287851,1.2072194874387132,-0.2988208690476785
1.8271160503407389,5.0352734260300664,-0.023847828969986065,1.1871749731904604,-0.28841421447749727
1.821702494262561,4.764486518304729,-0.023226571709822615,1.1674937896385744,-0.2784594314708277
1.8164297523989557,4.4981859387489145,-0.022623357538919687,1.148163423890234,-0.26893167676370033
1.8112937431000913,4.236292375777143,-0.022037592885989082,1.1291719062990666,-0.25980773013938585
1.8062905194434191,3.9787292117708795,-0.02146869978072572,1.110507780711918,-0.251065871434726
1.8014162656066333,3.7254224081747545,-0.020916116191323397,1.0921600766457022,-0.24268576811343484
1.7966672931795484,3.4763003967868364,-0.02037929621811012,1.0741182832492249,-0.23464837239348493
1.7920400374452874,3.231293976847695,-0.019857710166769526,1.0563723249172323,-0.22693582702263598
1.7875310536561666,2.9903362175621737,-0.019350844521236983,1.0389125384351283,-0.2195313788907986
1.7831370133253763,2.753362365714697,-0.018858201833461295,1.0217296515429242,-0.21241929975178186
1.7788547005518835,2.520309758063398,-0.018379300544735567,1.004814762816184,-0.20558481340137752
1.774681008392855,2.2911177382209793,-0.017913674751164656,0.98815932277007,-0.1990140287248418
1.770616773139362,2.0658281881057547,-0.017427501366166148,0.9708802434492642,-0.21020483889481728
1.7666612001047515,1.844498370627747,-0.016968785891316254,0.953726865055144,-0.22365388256533797
1.7628079360966373,1.6270998033647501,-0.016537857657503766,0.9366954589709159,-0.2392368338726557
1.7590505681262107,1.4136048441037232,-0.01613490730272667,0.9197824476467096,-0.25683332123572755
1.755382653906965,1.203986656911848,-0.015759998951586102,0.9029843975000179,-0.27632664005764673
1.7517977496651271,0.9982191797798663,-0.015413081412221032,0.886298012343291,-0.29760347676446786
1.7482894354792382,0.7962770937196915,-0.015093998465073883,0.8697201273104178,-0.3205536430204708
1.74485133834991,0.5981357932044418,-0.01480249831169412,0.8532477032569742,-0.34506981900665584
1.7414771531857673,0.4037713578444979,-0.01453824224606762,0.83687782161212,-0.3710473046891565
1.7381606618778191,0.2131605251978712,-0.014300812605656112,0.8206076796629205,-0.39838377803652975
1.734895750621913,0.026280664617345906,-0.014089720054398347,0.8044345862546783,-0.4269790591696977
1.731676425637445,-0.15689024795970852,-0.013904410245321868,0.7883559578936205,-0.45673487944573626
1.7284968274200312,-0.33637365437019184,-0.013744269906102708,0.7723693152410218,-0.4875546544867384
1.7253512436563412,-0.5121904378218289,-0.013608632386853902,0.7564722799905982,-0.51934326016752
1.7222341209207104,-0.6843609458149871,-0.013496782705587832,0.7406625721237897,-0.5520068105708243
1.7191400752654056,-0.85290501247637,-0.013407962123149205,0.7249380075404319,-0.5854524369056401
1.7160639018095123,-1.017841980391026,-0.013341372275922397,0.7092964960653004,-0.619588066362931
1.7130005834252877,-1.179190722019463,-0.013296178891247484,0.6937360398341671,-0.6543221998530286
1.709945298615466,-1.3369696607880215,-0.013271515107201735,0.6782547320663684,-0.6895636875295957
1.7068934286703916,-1.4911967919426203,-0.013266484415185477,0.6628507562345064,-0.7252215009557733
1.7038405641899808,-1.6418897032588617,-0.013280163240560439,0.6475223856458493,-0.7612045007080813
1.7007825110523764,-1.789065595705381,-0.013311603173390352,0.6322679834543335,-0.7974211981419443
1.6977152959087558,-1.9327413041622208,-0.013359832858092127,0.6170860031268725,-0.8337795099583248
1.6946351712821148,-2.072933318302013,-0.013423859547482632,0.601974989393042,-0.8701865041126811
1.6915386203469795,-2.209657803749238,-0.013502670323259898,0.5869335797132411,-0.9065481354940278
1.68842236146695,-2.3429306236415925,-0.013595232981343356,0.5719605063072404,-0.9427689696718176
1.685283352567779,-2.472767360728092,-0.013700496576666237,0.5570545987927656,-0.9787518928601225
1.6821187954254027,-2.5991833401509084,-0.013817391617909932,0.5422147874925971,-1.0143978060805496
1.678926139951046,-2.7221936530726154,-0.013944829898234238,0.5274401074787625,-1.0496053013157631
1.6757030885592787,-2.8418131813275807,-0.014081703943220928,0.5127297034340034,-1.0842703172327925
1.672447600709836,-2.958056623296258,-0.014226886051934414,0.49808283542403914,-1.1182857718179735
1.669157897720234,-3.0709385212243205,-0.014379226901125796,0.48349888568953403,-1.1515411690022677
1.6658324679538568,-3.180473290235824,-0.014537553676066748,0.468977366584424,-1.1839221760663443
1.662470072497428,-3.286675249320922,-0.014700667684184938,0.45451792980774974,-1.2153101682996859
1.6590697514528094,-3.3895586546152927,-0.014867341399453544,0.44012037709979335,-1.2455817370493294
1.6556308309811076,-3.4891377353308357,-0.015036314876214206,0.42578467260058167,-1.2746081569363958
1.6521529312523728,-3.585426732746427,-0.015206291460610475,0.4115109571001855,-1.3022548076508933
1.6486359754720774,-3.6784399427242604,-0.015375932715870677,0.3972995644461992,-1.32838054537178
1.6450802001763858,-3.768191762283273,-0.015543852464057225,0.3831510404147849,-1.3528370185227991
1.6414861670124208,-3.8546967408367507,-0.01570860983129029,0.36906616439805523,-1.375467922300604
1.6378547762477926,-3.937969636788459,-0.015868701165477138,0.35504597431246965,-1.3961081862540319
1.6341872822861672,-4.018025480281246,-0.016022550674743855,0.3410917951900463,-1.4145830892329279
1.6304853115033733,-4.094879643005285,-0.016168499610419575,0.3272052719755264,-1.430707296382164
1.626750882762364,-4.168547916100806,-0.016304793789662094,0.31338840711597793,-1.4442838137099188
1.6229864310164428,-4.239046597332056,-0.016429569218347102,0.2996436035905318,-1.4551028573727434
1.6191948344700648,-4.306392588864135,-0.01654083553276409,0.28597371407974365,-1.462940637582715
1.6153794458372994,-4.370603507138796,-0.01663645692606794,0.27238209700425037,-1.4675580615284969
1.611544128322655,-4.431697806511643,-0.01671413015779676,0.2588726801509648,-1.468699366760435
1.6076932970516986,-4.489694918468793,-0.016771359154867643,0.24545003251988076,-1.4660907073732805
1.6038319668061987,-4.544615408362262,-0.016805425588610264,0.23211944481463379,-1.4594387318831812
1.5999658070804383,-4.596481151653222,-0.016813354635391332,0.21888701858504095,-1.4484292166842943
1.5961012056877395,-4.645315531568258,-0.016791874866337646,0.2057597632848378,-1.4327258564505674
1.5922453424348255,-4.691143659758545,-0.01673737081117423,0.19274569923938606,-1.4119693688292936
1.5884062747886425,-4.733992620850586,-0.0166458261121585,0.17985396243051743,-1.385777154095702
1.58459303805577,-4.7738917404502175,-0.01651275417368834,0.167094903653219,-1.3537438739866965
1.580815763496255,-4.8108728738426905,-0.01633311156122443,0.15448016932478792,-1.3154434961593184
1.5770858192001094,-4.844970708771406,-0.01610118666612914,0.14202274309880783,-1.2704336172191342
1.5734159808022994,-4.876223069477497,-0.015810451575696657,0.1297369152150499,-1.2182632614378939
1.5698206427711088,-4.904671199535862,-0.015453357391179203,0.11763812877070524,-1.1584858924010915
1.5663160870390949,-4.930359986534569,-0.015021040278506462,0.10574262773977537,-1.0906801006852815
1.5629208357712892,-4.953338070892386,-0.014502883789369713,0.09406680145861063,-1.0144813239935317
1.55965613175556,-4.973657753562065,-0.013885846782188144,0.08262609132122142,-0.9296288512708646
1.5565466176101523,-4.991374585823628,-0.013153406656138912,0.07143331964889015,-0.8360327252194787
1.5536213307884879,-5.006546500524848,-0.012283870053988162,0.06049637340521152,-0.7338636642719969
1.5509152072305277,-5.019232359540403,-0.011247639145664427,0.049815444121339716,-0.6236630618533551
1.5484714172494463,-5.029489916111764,-0.01000270851591413,0.03938069997743465,-0.5064551995818175
1.546345114905284,-5.037373552437721,-0.00848687708549611,0.029172659378691245,-0.38381653201642096
1.5446098509049508,-5.042932986264162,-0.006602375091313299,0.019170243459939097,-0.25782285446100994
1.5433704056541084,-5.0462161702973205,-0.004175409698621768,0.009379182915322823,-0.13077950821021897
1.542801530370982,-5.04728912739737,-0.0007713318937812574,-4.912117574471832e-05,-0.004714380551197939
