x,y,v_x,v_y,omega
2.375,32.48,0.0,2.2564102564102564,-2.7346938775510203
2.3745573342379216,32.03306176350521,-0.004426657620784802,2.212972108537646,-2.600919245672466
2.3732813486901847,31.59468162580009,-0.008333197856585203,2.1708292685135278,-2.476589770297609
2.371270378359014,31.16460695544337,-0.01177650545512297,2.1299174350536365,-2.360820220685038
2.3686120549929766,30.74259754695058,-0.014806728205246844,2.090176649874288,-2.252824661123702
2.3653845664558304,30.328424790796415,-0.0174681571662153,2.0515509116673614,-2.1519036984624376
2.361657752718881,29.9218709162339,-0.01979998020327862,2.0139878339578003,-2.0574335650528552
2.3574940618136986,29.522728298773046,-0.021836928848546523,1.9774383406507168,-1.9688567448509058
2.3529493854245462,29.130798825296083,-0.023609835042976077,1.941856394118943,-1.8856739014817503
2.348073790769561,28.745893310731812,-0.02514611150688047,1.9071987515237507,-1.8074369084011095
2.342912162899113,28.36783096100496,-0.026470167197597812,1.8734247457447637,-1.733742814897695
2.337504769435439,27.99643887764517,-0.02760376743914201,1.8404960878531567,-1.6642286091386758
2.3318877580147253,27.631551600007782,-0.028566346767995802,1.8083766885207058,-1.598566661984501
2.326093595211185,27.273010681542104,-0.029375281267406326,1.7770324961360897,-1.5364607538503525
2.320151454473568,26.920664296957035,-0.030046126108758876,1.7464313497145938,-1.4776426022273
2.314087559548453,26.574366877490547,-0.030592823142393158,1.7165428449502813,-1.4218688201992136
2.3079254889692886,26.233978771797474,-0.031027882649252336,1.6873382119804285,-1.3689182468825087
2.3016864464290596,25.899365930237607,-0.031362542753036037,1.658790203618253,-1.3185895995604637
2.295389501205847,25.570399610579,-0.03160690947909031,1.630872992967825,-1.2706994046928235
2.2890518022565276,25.246956103335272,-0.03177008001410615,1.603562079469476,-1.2250801712059496
2.28268876911952,24.928916475134425,-0.03186025135597141,1.5768342025389643,-1.1815787747129405
2.276314262360471,24.616166328674293,-0.03188481623451836,1.5506672620623643,-1.1400550257432818
2.2699407359448034,24.308595577958684,-0.031850447922154225,1.5250402450937346,-1.1003803988137317
2.263579373619506,24.006098237631683,-0.031763175330822103,1.499933158176242,-1.0624369023580094
2.2572402111262124,23.708572225336926,-0.031628449602112634,1.4753269647713505,-1.026116072244393
2.2509379319307907,23.415920598176626,-0.03139434235210545,1.4511893068316426,-0.9894163137791807
2.2446853064219576,23.128049885465174,-0.03113191273622204,1.4275178202828598,-0.9543872751547882
2.2384876581688316,22.844868506114828,-0.03084456979504305,1.4042959732206206,-0.9209331828203307
2.2323496625121537,22.566288110335606,-0.0305353867717314,1.3815079845715925,-0.8889647908716379
2.2262754103930584,22.292223433770854,-0.030207134419221307,1.359138781075936,-0.8583988655310375
2.220268465869172,22.022592159941638,-0.029862310819643575,1.3371739572162298,-0.8291577157740878
2.214331917976595,21.75731479043435,-0.029503168106129733,1.3155997378566762,-0.8011687654934927
2.20846842752294,21.49631452231087,-0.029131736430418633,1.2944029433781405,-0.774364163098061
2.202680269332003,21.239517132261646,-0.028749845478951836,1.2735709571140539,-0.7486804248911765
2.1969693704036506,20.986850867059275,-0.028359143804571593,1.2530916949096826,-0.7240581089667508
2.1913373444022106,20.73824633990401,-0.027961116209829193,1.2329535766429698,-0.7004415167078943
2.1857855228421603,20.493636432283783,-0.02755709939067381,1.2131454995592756,-0.6777784192804386
2.1803149833005517,20.25295620099935,-0.027148296025410284,1.193656813285076,-0.6560198067850671
2.174926574950726,20.016142790031125,-0.0267357874728478,1.1744772963971697,-0.6351196579725489
2.169620941680928,19.783135346947972,-0.02632054522513131,1.1555971344343257,-0.6150347286402214
2.164398543033962,19.55387494357977,-0.025903441244526967,1.1370068992476983,-0.5957243570177467
2.1592596731795957,19.328304500695516,-0.02548525729914001,1.1186975295948565,-0.5771502846191232
2.154204478109688,19.10636871644703,-0.02506669339993449,1.1006603128899952,-0.5592764911884736
2.149232971226666,18.888013998355042,-0.02464837543028811,1.0828868680299164,-0.54206904250143
2.1443450474786903,18.673188398629875,-0.024230862049469122,1.0653691292217498,-0.5254959499038827
2.1395404961794724,18.46184155263328,-0.023814650942707027,1.0480993307441953,-0.5095270405771263
2.134819012636921,18.25392462030092,-0.023400184482806462,1.031069992579365,-0.4941338376144651
2.1301802087025,18.049390230357275,-0.022987854861404134,1.0142739068571387,-0.47928944908041504
2.125623622342171,17.848192427165724,-0.02257800874188696,0.9977041250583608,-0.46496846530086733
2.12115140350613,17.650461623882816,-0.022144179618523434,0.9796039077707172,-0.48583384114986544
2.1167630784294094,17.456339406839433,-0.02173907114868437,0.9616182626630951,-0.5084814963985228
2.1124529274243384,17.265803173664672,-0.02136243890202103,0.9437440690845132,-0.5327990225895667
2.10821528854697,17.07883093387403,-0.02101394987166796,0.925978328821923,-0.5586766357394596
2.1040445745363825,16.89540128483939,-0.020693190234204344,0.9083181615244718,-0.5860069359330594
2.0999352882652325,16.71549338863374,-0.020399672477295842,0.8907608005320513,-0.6146846725239962
2.095882036823657,16.539086949670942,-0.020132841938457876,0.8733035890959112,-0.6446065139945144
2.091879544350357,16.366162193063182,-0.019892082794543554,0.8559439769816691,-0.6756708215374296
2.0879226637171087,16.196699843620255,-0.01967672353793968,0.8386795174476172,-0.7077774254250431
2.0840063871661125,16.03068110541611,-0.019486041972023138,0.8215078645938374,-0.740827403225201
2.080125855993394,15.868087641848692,-0.01931926975515988,0.8044267710803323,-0.7747228589129748
2.0762763693659387,15.708901556119141,-0.019175596519392015,0.7874340862151753,-0.8093667019073759
2.072453392355307,15.55310537205596,-0.01905417358692897,0.7705277544166419,-0.8446624250357505
2.068652563266153,15.400682015208652,-0.018954117304609098,0.7537058140564217,-0.8805138803935622
2.0648697003343317,15.25161479413357,-0.018874512013601723,0.7369663966943937,-0.916825052023655
2.061100807866097,15.105887381792218,-0.018814412668749093,0.7203077267191159,-0.9534998242861487
2.0573420818873145,14.963483796979087,-0.018772847119073868,0.703728121412201,-0.9904417447271532
2.0535899153696,14.82438838569195,-0.018748818058071496,0.6872259914591834,-1.027553780180705
2.049840903098849,14.688585802352591,-0.018741304649435794,0.6707998419344136,-1.064738064752796
2.046091846250826,14.556060990779848,-0.018749263830796524,0.6544482737930258,-1.1018956382381364
2.042339756738262,14.426799164809623,-0.018771631294843324,0.6381699859092193,-1.1389261734082925
2.0385818613943947,14.300785788447993,-0.01880732214383046,0.6219637777070852,-1.1757276904829437
2.0348156060590257,14.17800655543347,-0.018855231209858173,0.6058285524381403,-1.2121962569531064
2.031038659635094,14.058447368072784,-0.018914233029459993,0.589763321168735,-1.248225670765136
2.0272489181864644,13.942094315200833,-0.018983181456837257,0.573767207550784,-1.2837071246961713
2.023444509151229,13.828933649099657,-0.019060908895511958,0.5578394534609964,-1.3185288495546519
2.019623795749363,13.718951761192837,-0.019146225123148612,0.5419794256072095,-1.3525757336232587
2.0157853816691733,13.612135156310536,-0.01923791567874846,0.5261866232157963,-1.385728915526389
2.011928116123773,13.508470425295787,-0.0193347397752571,0.5104606869317097,-1.4178653474513996
2.008051099376872,13.407944215694329,-0.01943542769374946,0.49480140908285575,-1.4488573253851937
2.0041536888467326,13.310543200237696,-0.01953867760764782,0.4792087454834879,-1.4785719827504455
2.000235505908292,13.216254042791597,-0.019643151776753808,0.4636828289775098,-1.506870743547383
1.9962964435265096,13.125063361398613,-0.019747472041073792,0.4482239849523131,-1.5336087308410247
1.9923366748690725,13.03695768799465,-0.019850214533295912,0.43283274908731206,-1.5586341262006156
1.9883566630641332,12.951923424322036,-0.01994990351609927,0.41750988763885144,-1.58178747552851
1.9843571722889288,12.86994679349769,-0.020045004235943253,0.40225642060461486,-1.6029009366553804
1.9803392803985134,12.791013786621662,-0.02013391466821176,0.38707364815565865,-1.6217974641940647
1.9763043933307864,12.715110103728918,-0.020214956009057816,0.3719631807717683,-1.6382899275326634
1.9722542615552507,12.642221088295333,-0.02028636174629938,0.356926973564068,-1.652180158649587
1.968190998869196,12.572331654407495,-0.020346265114248835,0.34196736531431277,-1.6632579278531423
1.9641171038873766,12.50542620559633,-0.020392684703944355,0.32708712279735236,-1.6712998478811545
1.9600354846211139,12.441488544219336,-0.020423507958683532,0.3122894909725895,-1.6760682104691682
1.9559494866020795,12.380501770160368,-0.020436472231660216,0.29757824961710144,-1.6773097651272988
1.9518629250776525,12.322448167508227,-0.020429143012608283,0.28295777690430696,-1.6747544583518428
1.9477801218928583,12.267309077790618,-0.020398888835334802,0.2684331202717767,-1.6681141641378556
1.9437059477848693,12.215064758301953,-0.020342852244554985,0.25401007461488745,-1.6570814553390747
1.9396458709597146,12.165694224109913,-0.020257916006991613,0.23969526730549714,-1.6413284928782903
1.935606013012695,12.119175072515407,-0.020140663463204707,0.22549624863956513,-1.620506150008472
1.9315932135188154,12.07548328916403,-0.01998733147559007,0.21142158487422205,-1.5942435474814662
1.9276151049972836,12.034593035802466,-0.01979375373972919,0.19748094874141683,-1.5621482607823018
1.9236802005098872,11.99647642104705,-0.019555291134234924,0.18368519881274914,-1.5238075840826453
1.9197979969935466,11.96110325778962,-0.019266744029171196,0.17004643376152764,-1.478791413146248
1.9159790987280287,11.928440814448468,-0.018922238626007056,0.15657799964998254,-1.4266575619665391
1.9122353673898682,11.89845357279156,-0.01851507475559792,0.14329441691910133,-1.36696068053022
1.908580108418495,11.871103013313757,-0.018037514958134538,0.13021117785894212,-1.2992664181300726
1.905028308698275,11.846347461056048,-0.017480482244064358,0.117344344718137,-1.2231730862753174
1.9015969491003242,11.8241420410599,-0.016833113735444313,0.10470985524335384,-1.138343770290957
1.898305429241785,11.804438813118225,-0.016082084849947564,0.09232242417341058,-1.044552428069046
1.8951761640735865,11.78718717697572,-0.01521056683203729,0.08019393725162999,-0.9417474843335412
1.8922354476002,11.772334651588483,-0.014196597901828626,0.06833131662074635,-0.8301346367399287
1.8895147366417668,11.759828111246776,-0.013010511682502208,0.05673408679631291,-0.7102749054425366
1.8870526048650536,11.74961545815465,-0.011610806084630765,0.04539244412495217,-0.5831813572652541
1.8848978058460877,11.74164743888668,-0.009937184105028675,0.03428774855475275,-0.4503765266479124
1.8831143566329889,11.735878720482013,-0.007897308025957938,0.023399435491919602,-0.31384738744452134
1.8817911953099464,11.73226599094762,-0.005334305204467541,0.01272785985202203,-0.17582412580765922
1.8810676927621945,11.73075554752089,-0.0019007202730521103,0.0023765744152761045,-0.038350619412078235
