x,y,v_x,v_y,omega
2.375,32.48,0.0,3.333333333333333,-4.204081632653061
2.374145829872913,31.886902117832392,-0.009490779189853986,3.2566431351956258,-3.9415750053950673
2.3717072270709507,31.307334716988237,-0.017604807498616898,3.182994651961624,-3.7035568690989034
2.3679148136125736,30.740767658068286,-0.02453311981668698,3.1121948915933886,-3.4870615473783992
2.3629674107701275,30.186704026812127,-0.030438022877158036,3.0440676779194984,-3.2895482247824743
2.357036782571781,29.64467728142595,-0.03545784599335878,2.978451715260252,-3.1088316818976187
2.3502716018232848,29.114248722574615,-0.03971082898993065,2.915198938643449,-2.9430256281037166
2.3428007785138587,28.595005239321253,-0.04329831889258289,2.854173097505035,-2.7904961062431393
2.334736262942296,28.086557292664217,-0.046307409680338286,2.7952485320176015,-2.649822997329293
2.3261754142841196,27.588537104911303,-0.04881313096606227,2.738309109681424,-2.5197680751974296
2.3172030082347193,27.10059702837382,-0.05088026958283028,2.683247296290617,-2.3992483847848587
2.307892943775315,26.62240807107359,-0.05256489107721803,2.629963340378622,-2.2873139681336956
2.2983096982417206,26.153658560567727,-0.05391561485160735,2.5783645541309577,-2.183129157195529
2.288509571140252,25.694052929783673,-0.054974686275821597,2.52836467680299,-2.085956805315418
2.278541750099056,25.2433106110527,-0.05577888084858053,2.479883309096701,-1.995144949719793
2.268449226618155,24.80116502643471,-0.05636026893920887,2.432845408880969,-1.9101154928040993
2.258269584616997,24.367362664017897,-0.05674686440698848,2.387180840194724,-1.8303545660832148
2.2480356809628126,23.941662231214288,-0.05696317619506015,2.342823968734245,-1.7554043015707665
2.237776234030422,23.523833877203042,-0.05703067860928415,2.2997132980573802,-1.684855784340297
2.227516333763003,23.113658477635095,-0.05696821325092512,2.2577911415864698,-1.618342999595516
2.217277884569465,22.71092697553476,-0.05679233334393925,2.2170033261949955,-1.5555376196797692
2.207079990624297,22.3154397730398,-0.0565175993801485,2.1772989237490563,-1.4961445025997455
2.1969392916634805,21.927006169230445,-0.05615683351781319,2.138630007465958,-1.43989779501137
2.186870256141632,21.545443839825563,-0.05572133894716763,2.1009514303660923,-1.3865575501506764
2.1768854375877185,21.170578354982585,-0.05522108942965633,2.064220623444766,-1.3359067856281612
2.166995699134355,20.802242731838557,-0.05466489338549127,2.0283974114888617,-1.287748917928825
2.1572104104703644,20.440277018779938,-0.05406053621440577,1.9934438447180356,-1.2419055203402927
2.1475376208545653,20.084527908736916,-0.053414903961135324,1.9593240446488713,-1.198214359243447
2.137984211311729,19.734848379069327,-0.052734090959271625,1.9260040627687756,-1.1565276705457301
2.128556028693495,19.3910973558509,-0.052023493687775264,1.8934517507693065,-1.1167106437602958
2.1192580039150086,19.05313940057097,-0.05128789273984903,1.8616366412299297,-1.078640086031886
2.1100942563613634,18.720844417461315,-0.050531524522874856,1.8305298377661994,-1.0422032424429803
2.101068186187864,18.394087379823624,-0.04975814407156403,1.8001039137637362,-1.0072967523322218
2.0921825560073044,18.07274807388268,-0.048971080156875915,1.7703328189133904,-0.9738257242282585
2.0834395632597826,17.756710858824377,-0.048173283704477134,1.741191792845508,-0.9417029144336907
2.0748409043909666,17.445864441797234,-0.04736737039347758,1.7126572852338615,-0.9108479963579569
2.0663878318189295,17.14010166676384,-0.0465556581847105,1.6847068818038897,-0.88118690945425
2.0580812045441044,16.839319316185197,-0.045740200424459955,1.6573192357365714,-0.8526512781132003
2.0499215331485763,16.54341792460805,-0.04492281508140898,1.630474004009476,-0.8251778921459493
2.0419090198373127,16.252301603303696,-0.044105110599295116,1.6041517882611462,-0.798708241585338
2.0340435940928767,15.965877875177775,-0.04328850878332639,1.5783340798046481,-0.7731880994745745
2.0263249444448928,15.68405751923472,-0.04247426508316461,1.5530032084515204,-0.7485671471215962
2.018752546794503,15.40675442393858,-0.041663486587830624,1.5281422948389456,-0.7247986369942316
2.0113256896809633,15.133885448864763,-0.040857148007058565,1.5037352059812494,-0.7018390890328312
2.0040434968312684,14.865370294085157,-0.04005610587843859,1.4797665137921647,-0.6796480166772964
1.9969088717474457,14.601132417195121,-0.03921750616403608,1.4562098960971097,-0.6569248557425765
1.9899239182295814,14.34109781785316,-0.03839308847889893,1.4330634299246896,-0.6351526590835099
1.9830860698674309,14.085193890635658,-0.03758300443388524,1.4103135391586796,-0.6142810274814798
1.9763927383621807,13.833350422744378,-0.03678734562445099,1.387947215188874,-0.5942627361497733
1.9698413236481407,13.585499494553304,-0.03600615119821451,1.365951986934151,-0.5750535027726161
1.9634292227294359,13.341575385382136,-0.035239414565171344,1.3443158927454957,-0.5566117747634675
1.9571538373772173,13.101514484170366,-0.03448708934837135,1.323027454051942,-0.5388985339654724
1.95101258081635,12.865255204749552,-0.03374909466126298,1.3020756506237539,-0.521877117198023
1.9450028835159388,12.632737905433043,-0.033025319787750064,1.2814498973374697,-0.5055130512143177
1.939122198185152,12.403904812662358,-0.032315628332104517,1.2611400223367948,-0.48977390077804234
1.9333680040644363,12.17869994846778,-0.031619861898069805,1.2411362464918274,-0.47462912869493956
1.927737810592143,11.957069061517501,-0.030937843349633426,1.2214291640668493,-0.4600499667489148
1.922229160517683,11.73895956154523,-0.03026937969991995,1.2020097245139623,-0.4460092965940575
1.9168396325244486,11.524320456960506,-0.029614264669353536,1.1828692153162839,-0.43248153974493664
1.9115668434187456,11.313102295459114,-0.028972280949568933,1.1639992458102866,-0.4194425558889858
1.9064084499347953,11.105257107463189,-0.028343202205433425,1.145391731922231,-0.40686954881781334
1.9013621502003544,10.900738352231919,-0.02772679484390997,1.1270388817585477,-0.3947409793397886
1.8964256849026269,10.699500866494144,-0.027122819575284358,1.1089331819945174,-0.3830364845951175
1.8915968381898014,10.501500815463764,-0.026531032789444232,1.0910673850097148,-0.37173680324754615
1.8868734383396863,10.306695646107869,-0.025951187767390003,1.0734344967224543,-0.3608237060744774
1.8822533582234868,10.115044042545744,-0.025383035745937605,1.0560277650789465,-0.3502799315202199
1.8777345155897078,9.926505883464593,-0.024826326851605903,1.038840669156051,-0.34008912581581424
1.873314873190449,9.741042201444998,-0.02428081091793743,1.0218669088394452,-0.33023578730384684
1.8689924387699288,9.558615144095693,-0.02374623819895347,1.0051003950417183,-0.32070521463826307
1.8647652649329167,9.379187936903474,-0.023222359990070204,0.9885352404273822,-0.3114834585577747
1.860635816375139,9.202947436865475,-0.02266040176301458,0.9696925377725991,-0.3516669414115609
1.8566034434827743,9.030089523153322,-0.02214374148548298,0.9509509479179863,-0.39296167393160214
1.852660130492449,8.860596219604584,-0.021670847295907455,0.9323079804013237,-0.4352681119601776
1.8487981381480942,8.694449989615812,-0.0212401787524797,0.9137612416961479,-0.4784879740637178
1.8450100050303049,8.531633718898213,-0.0208501892229571,0.8953084329438215,-0.5225240233377219
1.8412885484823542,8.372130698610455,-0.02049932797649534,0.8769473480312833,-0.5672798495205935
1.837626865185039,8.215924608806105,-0.020186041993673548,0.8586758720170324,-0.6126596504394405
1.8340183314298475,8.062999502132605,-0.01990877750845647,0.8404919799107649,-0.6585680117801659
1.8304566031376763,7.913339787717273,-0.01966598129344378,0.8223937358151526,-0.7049096841348963
1.8269356156685035,7.766930215174167,-0.019456101697364718,0.8043792924415798,-0.7515893562313266
1.8234495834660183,7.623755858663049,-0.019277589441362403,0.7864468910152713,-0.7985114231901906
1.8199929995802622,7.483802100928642,-0.0191288981781487,0.7685948615892421,-0.8455797485879665
1.8165606351108274,7.347054617244428,-0.01900848481556961,0.7508216237909148,-0.892697419021142
1.813147538613114,7.213499359180528,-0.01891480960347138,0.7331256880301918,-0.9397664897748308
1.8097490355106045,7.083122538109514,-0.01884633597996525,0.7155056572033064,-0.9866877200910511
1.806360727557088,6.955910608357243,-0.018801530170217302,0.6979602289330304,-1.0333602964092368
1.8029784923942758,6.831850249897908,-0.018778860527697706,0.6804881983929048,-1.0796815418121197
1.7995984832523901,6.710928350483137,-0.018776796604365903,0.6630884617712159,-1.1255466097524691
1.7962171288440727,6.59313198708416,-0.018793807932493706,0.6457600204396492,-1.1708481599587126
1.7928311335054472,6.4784484065134045,-0.01882836249668003,0.6285019859020794,-1.2154760142185954
1.7894374776424438,6.366865005077223,-0.01887892487002476,0.6113135856110424,-1.259316789518225
1.7860334185456415,6.25836930709443,-0.018943953983332398,0.5941941697533143,-1.302253505767788
1.7826164916429943,6.152948942095652,-0.0190219004905264,0.5771432191219973,-1.3441651650739925
1.7791845122670098,6.050591620495691,-0.019111203687078245,0.5601603542109015,-1.384926299222652
1.7757355780213753,5.9512851075047735,-0.019210287931084563,0.5432453456881816,-1.4244064817136832
1.7722680718418093,5.855017195014089,-0.01931755850853702,0.5263981264305583,-1.4624698003477505
1.7687806658572747,5.761775671155867,-0.019431396875180876,0.509618805327448,-1.4989742860041158
1.7652723261707801,5.671548287197719,-0.019550155196982028,0.49290768309642896,-1.5337712928820904
1.7617423186941035,5.584322721384108,-0.01967215009942224,0.4762652703881328,-1.5667048251188154
1.758190216188141,5.500086539284148,-0.019795655522381737,0.4596923085003004,-1.5976108043672963
1.7546159066805505,5.418827150143027,-0.019918894561958497,0.4431897930676882,-1.6263162726564968
1.7510196034553176,5.340531758663719,-0.020040030162852607,0.4267590011468379,-1.652638524713552
1.747401856835261,5.265187311565015,-0.020157154504445243,0.41040152217210807,-1.6763841639866353
1.7437635680088783,5.192780438170654,-0.020268276899804517,0.39411929332079404,-1.6973480769833813
1.7401060051880128,5.1232973841818215,-0.020371309998700324,0.3779146398884778,-1.71531232140681
1.7364308224234417,5.056723937671531,-0.020464054052091243,0.36179032133695715,-1.7300449251812906
1.7327400814528326,4.993045346215567,-0.020544178954673503,0.34574958372930814,-1.7412985961849692
1.7290362770110987,4.932246223943075,-0.02060920373125865,0.3297962192983799,-1.7488093468827421
1.7253223660991832,4.874310447156322,-0.020656473067805332,0.3139346338877563,-1.7522950448757473
1.7216018017868735,4.819221037042865,-0.020683130402299677,0.29816992292842637,-1.7514539108067457
1.7178785722230219,4.7669600279011775,-0.02068608697383122,0.28250795642367654,-1.7459630007816551
1.7141572456497012,4.717508319249735,-0.020661986063066972,0.2669554730367893,-1.7354767339733408
1.7104430223765956,4.670845510233477,-0.020607161415882366,0.25152018269939364,-1.719625561012812
1.7067417948861578,4.626949714949468,-0.0205175884778697,0.23621087601179488,-1.6980149204879749
1.7030602175378116,4.5857973577936235,-0.02038882650375575,0.2210375368309388,-1.6702247071547525
1.6994057877682596,4.547362948848477,-0.020215948713489036,0.2060114514484863,-1.6358095875975942
1.695786941323401,4.511618840940866,-0.01999345622938547,0.19114530308052774,-1.5943006631362773
1.6922131650363745,4.478534972674705,-0.01971516918201931,0.17645323321013834,-1.545209218087619
1.6886951322046069,4.4480786060363044,-0.019374084504288663,0.16195084054985975,-1.4880336335626696
1.6852448680825511,4.420214073844274,-0.01896218351855353,0.14765507269491748,-1.4222710281488185
1.681875957007385,4.3949025623704685,-0.018470161761070282,0.13358394368072135,-1.3474358400776485
1.6786038092265811,4.372101969012345,-0.017887035803415805,0.11975598252067106,-1.2630883959127224
1.6754460162629903,4.351766894750703,-0.017199552680927068,0.10618928705312754,-1.1688774300879479
1.6724228413224655,4.333848855526213,-0.016391279991568742,0.0929000376634212,-1.0646011970110858
1.6695579201036184,4.318296820389399,-0.015441177995621646,0.07990035274563007,-0.9502913804904423
1.666879294327688,4.305058191603738,-0.014321330625828538,0.06719552265059284,-0.8263205486860122
1.664420977821571,4.2940802960221305,-0.012993297219916121,0.05478109492282116,-0.6935240215157044
1.6622253925212949,4.285312285478316,-0.01140209500537297,0.042641244452893634,-0.5533064814805397
1.6603473068241812,4.2787069208348,-0.009465523851447059,0.03075169603061325,-0.4076719548645005
1.6588607716992394,4.274220789519536,-0.007051533092352106,0.01909420747230958,-0.2590861280599033
1.657874214748636,4.271808962830711,-0.0039102108032393265,0.007703866847952321,-0.11008442094882856
