x,y,v_x,v_y,omega
2.375,32.48,0.0,2.6153846153846154,-3.3469387755102042
2.3743550878116246,31.962425087196085,-0.0064491218837551215,2.5603645126545156,-3.1614621767451405
2.372504554377048,31.455663770233375,-0.012056212462008246,2.5072486569725783,-2.9911135500199046
2.3696064068152394,30.959345945267952,-0.01692526315607748,2.4559295926816462,-2.8342740753338336
2.365799246374232,30.473122167762668,-0.021146341253997253,2.406308182371212,-2.6895309990580927
2.3612048477887817,29.9966620740225,-0.02479764460050876,2.3582927550304706,-2.5556476810004214
2.3559303610774927,29.529652961897074,-0.02794722251238129,2.3117983662237624,-2.4315385124812234
2.350070196583068,29.07179851007196,-0.03065442243186057,2.266746152027384,-2.316247829921479
2.3437076433188415,28.622817618669224,-0.03297111021040657,2.223062761999992,-2.2089321209937585
2.336916262020288,28.18244335654787,-0.03494270277512654,2.180679859213503,-2.108844955858672
2.3297610872734325,27.750422002872853,-0.036609044693431465,2.1395336775367086,-2.015324183047337
2.3222996673654945,27.32651217231124,-0.03800515438594823,2.099564628079422,-1.9277810146247543
2.3145829658150587,26.910484014695832,-0.039161861118411335,2.060716948074626,-1.845690693259659
2.306656144684926,26.502118481230603,-0.04010635018291246,2.0229383865776716,-1.768584488444425
2.2985592465998317,26.10120665034746,-0.040862630668032196,1.9861799222537653,-1.6960428131964222
2.2903277897560557,25.707549107196826,-0.04145193776972755,1.950395509252589,-1.627689288321925
2.2819932880194154,25.32095537149496,-0.04189307959667599,1.9155418477660555,-1.5631856104365465
2.273583706381137,24.94124336908251,-0.04220273678610814,1.881578176358426,-1.502227103740511
2.2651238605126283,24.568238943089888,-0.042395721898978646,1.8484660835677897,-1.4445388550856857
2.256635767877608,24.20177540107108,-0.04248520445122581,1.8161693366202671,-1.3898723479672284
2.248138956780806,23.841693094870465,-0.04248290651679204,1.7846537253859143,-1.3380025243787033
2.2396507388218456,23.48783903033706,-0.04239927307281148,1.7538869199481268,-1.28872521450575
2.231186449452599,23.14006650430581,-0.042243620619657536,1.7238383403643753,-1.2418548834161285
2.2227596606830726,22.798234766532204,-0.042024267075604096,1.6944790373717014,-1.1972226515677897
2.214382369425586,22.46220870450096,-0.041748645499260044,1.6657815829407332,-1.1546745523714894
2.2060651644938885,22.131858549235766,-0.04142340381771778,1.6377199697111893,-1.114069995429031
2.1978173748698855,21.807059600419315,-0.04105449242231371,1.610269518453346,-1.0752804086001992
2.1896472015049486,21.487691969294325,-0.04064724122705502,1.5834067927965123,-1.0381880358758255
2.1815618346263492,21.173640337959725,-0.04020642755893906,1.5571095205494934,-1.002684871269806
2.1735675582646707,20.86479373380366,-0.039736336057844795,1.5313565210112072,-0.968671711686691
2.165669843498801,20.56104531792917,-0.0392408116008535,1.5061276377336354,-0.9360573140538452
2.1578734317259993,20.262292186530264,-0.038723306127159074,1.481403676255451,-0.9047576439943863
2.150190187948405,19.96843671304278,-0.038109131648784475,1.4571510586193719,-0.8723464699123215
2.1426303543826606,19.67938475612474,-0.03748920400866083,1.4333685105610239,-0.8414119042583543
2.1351948918402712,19.395043971325133,-0.036865421415234585,1.4100393374350566,-0.8118692406571064
2.1278844036583453,19.115325277240796,-0.03623946040402404,1.3871476034083152,-0.7836395508950321
2.1206991776668254,18.840142708095968,-0.03561279951117513,1.3646780880399452,-0.7566492282540059
2.1136392236798134,18.56941327470964,-0.03498674035894621,1.3426162458233808,-0.7308295717437817
2.1067043069988114,18.30305683328183,-0.03436242645107069,1.3209481684546986,-0.7061164071478239
2.0998939783597517,18.040995961475037,-0.033740859939527565,1.2996605496132243,-0.6824497412465612
2.0932076007065428,17.783155841307767,-0.033122916592563126,1.2787406520594906,-0.6597734459777151
2.086644373130666,17.529464148414526,-0.03250935916620076,1.2581762768729154,-0.638034969642005
2.080203352278307,17.27985094726052,-0.03190084935739064,1.237955734667108,-0.6171850725702637
2.0738834714929766,17.03424859193034,-0.03129795849591168,1.218067818634724,-0.597177584940005
2.067683557932012,16.792591632138222,-0.030701177113735288,1.1985017792864392,-0.5779691846702597
2.061602347869194,16.554816724133573,-0.030110923514443725,1.1792473007600384,-0.5595191935369151
2.055638500372633,16.320862546198974,-0.029527551451164466,1.160294478585965,-0.5417893898402204
2.0497906095266094,16.09066971845987,-0.02895135700907652,1.1416337988050516,-0.5247438361244783
2.0440572153479373,15.8641807267451,-0.028382584777641776,1.123256118342652,-0.5083487205997613
2.0384368135313613,15.641339850255722,-0.027821433388121413,1.105152646551127,-0.4925722110489841
2.0329278641442,15.422093092816645,-0.027268060483487754,1.0873149278396572,-0.4773843201227541
2.027528799377812,15.206388117501003,-0.0267225871803911,1.0697348253167505,-0.462756781030795
2.022238030452147,14.994174184431664,-0.026185102076264476,1.0524045053766435,-0.44866293273385627
2.0170539537596364,14.785402091577389,-0.02565566484883805,1.0353164231661118,-0.4350776138251851
2.011974956325733,14.580024118373473,-0.02513430949019535,1.0184633088730557,-0.4219770643669617
2.0069994206554185,14.3779939720079,-0.024621047212952912,1.0018381547826734,-0.4093388350155863
2.0021257290279117,14.179266736224523,-0.024115869062112754,0.985434203051091,-0.39714170283122463
1.9973561624655627,13.98397988567217,-0.023579796561378878,0.9674343024724552,-0.42134635629746753
1.9926903060660275,13.792281890713607,-0.023078767433972563,0.9495456471131681,-0.4472123052894774
1.9881212143569988,13.604150801663344,-0.02261214965631282,0.9317652433894692,-0.47463040452791805
1.9836420748611965,13.419565255854518,-0.022179245301711514,0.9140902146987865,-0.5034939346473765
1.979246220639054,13.23850445466405,-0.02177929691971298,0.8965177972058896,-0.5336983664621722
1.9749271416102796,13.06094814134148,-0.02141149336803108,0.879045336019796,-0.5651411302267454
1.9706784947600189,12.886876579564397,-0.021074975134576825,0.8616702817510397,-0.5977213889422849
1.966494113328201,12.716270532645147,-0.020768839183602637,0.8443901874414717,-0.6313398147662811
1.9623680150741702,12.549111243314865,-0.0204921433567031,0.827202705861349,-0.6658983675797707
1.958294409702872,12.385380414011617,-0.020243910356279645,0.8101055871711293,-0.701300074757983
1.9542677055336368,12.225060187599691,-0.020023131336072367,0.7930966769481445,-0.7374488111736481
1.9502825154879835,12.068133128446753,-0.019828769120459885,0.776173914581224,-0.7742490784380363
1.9463336624687972,11.91458220378469,-0.01965976107140248,0.7593353320394094,-0.8116057823524333
1.9424161841997443,11.764390765278328,-0.01951502161912833,0.7425790530241981,-0.8494240075017142
1.9385253375908404,11.617542530724076,-0.019393444469911047,0.7259032925183238,-0.8876087878713281
1.9346566026936962,11.474021565797447,-0.019293904501531196,0.7093063567479821,-0.926064872308668
1.9308056863081204,11.333812265764678,-0.019215259354225824,0.6927866435797083,-0.9646964835786438
1.92696852530049,11.19689933706892,-0.019156350722077872,0.6763426433778801,-1.0034070696804185
1.9231412896935973,11.063267778695717,-0.01911600534684815,0.6599729403541496,-1.0420990459966883
1.9193203855875955,10.932902863215695,-0.01909303571317104,0.643676214446085,-1.0806735267375074
1.9155024579722002,10.805790117394181,-0.01908624044078208,0.6274512437690577,-1.119030044016293
1.9116843934915242,10.681915302247969,-0.019094404365978045,0.611296907693056,-1.1570662527550888
1.9078633232248483,10.561264392418181,-0.01911629830078133,0.5952121906048092,-1.194677619458167
1.9040366255493464,10.443823554715149,-0.01915067845423651,0.5791961864255223,-1.231757092716449
1.9002019291543377,10.329579125676009,-0.01919628549585002,0.5632481039658616,-1.26819475310899
1.8963571162811201,10.218517587958143,-0.019251843236326675,0.5473672732128129,-1.3038774399511759
1.892500326267949,10.110625545371072,-0.019316056895384476,0.5315531526579131,-1.3386883521021173
1.888629959486365,10.005889696325937,-0.019387610920456697,0.5158053377934197,-1.3725066197866167
1.8847446817629772,9.90429680545434,-0.0194651663134196,0.5001235709225474,-1.4052068441119012
1.8808434293901348,9.805833673116854,-0.019547357415003467,0.48450775245230787,-1.4366586006699134
1.8769254148398222,9.710487102485313,-0.01963278808812315,0.4689579538631042,-1.4667259033189928
1.872990133307825,9.618243863841162,-0.019720027231848743,0.45347443257841846,-1.4952666239451637
1.8690373702299456,9.529090655684218,-0.019807603546944483,0.4380576489910268,-1.5221318637299688
1.86506720992909,9.443014062191171,-0.019893999461612223,0.4227082859394501,-1.5471652712247201
1.861080045571728,9.360000506500235,-0.01997764411200907,0.4074272709699086,-1.57020230238886
1.8570765906349354,9.280036199226771,-0.020056905255914834,0.3922158017647296,-1.5910694177499909
1.8530578921114298,9.203107081533567,-0.020130079979141135,0.37707537516732675,-1.6095832120688642
1.8490253457102885,9.129198761988324,-0.020195384032272876,0.3620078202851122,-1.6255494724664943
1.8449807133461378,9.058296446339575,-0.020250939609234766,0.34701533620237046,-1.6387621620704376
1.8409261432504431,8.990384859231277,-0.02029476134771125,0.33210053488061103,-1.6490023281214403
1.8368641930863987,8.925448156757557,-0.02032474029273263,0.3172664898565695,-1.656036936525007
1.8327978565055347,8.863469828636351,-0.020338625515908076,0.3025167913554838,-1.659617639579314
1.8287305936520044,8.80443258866081,-0.020334003019393698,0.287855608399918,-1.6594794908522972
1.8246663662031928,8.748318251982663,-0.02030827146872406,0.27328775838155733,-1.6553396320672094
1.8206096776382292,8.695107597711758,-0.020258614180911936,0.2588187843275046,-1.6468959930624751
1.8165656195575732,8.644780215312949,-0.02018196662564659,0.24445503966060117,-1.6338260698574338
1.812539925050157,8.597314333395513,-0.02007497844851513,0.23020377951376966,-1.615785881129839
1.8085390303405517,8.552686629799847,-0.019933968647538377,0.21607325644289715,-1.5924092551444207
1.8045701462809938,8.51087202251161,-0.019754871948041094,0.20207281643949618,-1.5633076747957833
1.800641341736844,8.47184344205741,-0.01953317349345579,0.18821298810248996,-1.5280710185493738
1.7967616416394208,8.435571587931673,-0.019263827480777162,0.1745055531548795,-1.486269694526752
1.7929411435960865,8.402024674671303,-0.01894115295256495,0.16096357944882245,-1.437458893856479
1.7891911587003881,8.371168178002193,-0.018558696004419017,0.14760138724225935,-1.3811860131199054
1.7855243849825009,8.342964598798325,-0.018109041174453663,0.1344344047964242,-1.3170027422527273
1.7819551264537519,8.317373273369022,-0.01758354411303749,0.12147884949661386,-1.2444839036323743
1.7784995780260349,8.29435027377015,-0.01697194016413195,0.10875114649212504,-1.1632558432450133
1.7751762084979217,8.273848461783473,-0.016261755116998414,0.09626697337462767,-1.073037892172851
1.7720062931054907,8.25581778322103,-0.015437398807313103,0.08403981224981542,-0.9737007572332423
1.7690146782650191,8.240205908234444,-0.014478749597402038,0.07207893761603804,-0.8653447514578594
1.7662309113070034,8.226959319580867,-0.013358919982755818,0.06038694891971721,-0.7483966916516502
1.7636909509465046,8.216024883511572,-0.012040683622232741,0.04895741177323459,-0.6237140732483709
1.7614398253643273,8.207351731175944,-0.01047057219953882,0.037774111583038755,-0.49266576552883046
1.7595359477055617,8.200892803383212,-0.008568204388120006,0.026815166344285445,-0.3571316252590704
1.7580588658424185,8.196604379586606,-0.006202614243309606,0.01606907162178195,-0.21934341966014095
1.7571270606083362,8.194438763451853,-0.0031154380975131632,0.005587089725755751,-0.08150482115433338
