x,y,v_x,v_y,omega
2.375,32.48,0.0,4.0,-2.4897959183673475
2.3741398507958302,31.6525920538994,-0.008191897182570292,3.8800756771485494,-2.2775874793563005
2.371727308057784,30.84967987043137,-0.014784700322630469,3.7667070225469756,-2.0928929891631225
2.368066490345272,30.069944108539698,-0.020080230272722092,3.659347852611794,-1.9311735104912475
2.363404574918105,29.312173804718814,-0.024318964271722605,3.5575121837775736,-1.7887639162801734
2.3579432553005373,28.575254603490304,-0.02769360351463787,3.460765923160618,-1.6626838159320296
2.3518476910980346,27.85815858648891,-0.03035938889015072,3.3687199530431435,-1.550493515279641
2.345253544841583,27.159935436748476,-0.032442004028438005,3.2810243301990907,-1.450183362175201
2.3382725487455858,26.47970472647924,-0.034043673076297354,3.197363386650774,-1.360088070079661
2.330996933885799,25.816649156423985,-0.03524789701690496,3.1174515662564106,-1.2788198898478396
2.32350297335657,25.170008605931752,-0.03612315564242107,3.04102986700294,-1.2052161187401558
2.3158538311000596,24.539074877407067,-0.03672581822910742,2.9678627856131237,-1.1382975979588519
2.3081018634733144,23.92318703835949,-0.037102444882751315,2.8977356815066573,-1.0772356924078839
2.3002904871050314,23.32172728004008,-0.037291615767562424,2.830452492963909,-1.0213258623664678
2.292455701249067,22.734117224454284,-0.03732539238447904,2.76583375071035,-0.969966390954915
2.28462733354794,22.159814622018622,-0.03723049048340063,2.7037148439149976,-0.9226411687892084
2.276830063339989,21.59831039076152,-0.03702922578279708,2.6439445013907483,-0.8789056898998255
2.269084265254846,21.049125955125234,-0.036740279789996215,2.586383457050075,-0.8383756034864124
2.261406707015878,20.51181084839196,-0.036379322485887204,2.5309032737430064,-0.8007173106555885
2.2538111284915923,19.985940547756258,-0.03595952060255043,2.4773853037398643,-0.7656402057117283
2.2463087236524624,19.471114515274724,-0.03549195405582912,2.4257197675128257,-0.7328902464196146
2.2389085428512265,18.966954421482804,-0.03498595833689391,2.3758049352673574,-0.7022446032339256
2.2316178294932993,18.473102531490447,-0.034449406976696184,2.3275463979931756,-0.6735071884523484
2.224442302502037,17.989220235943932,-0.03388894532104115,2.2808564167355425,-0.6465049060639838
2.2173863938601555,17.514986711444344,-0.03331018460164094,2.2356533404033967,-0.6210844943293127
2.2104534488077396,17.05009769690423,-0.03271786351660537,2.191861083788154,-0.5971098577986591
2.2036458949094464,16.59426437395224,-0.03211598313380452,2.1494086586117835,-0.5744598050351023
2.196965385099329,16.147212340901863,-0.03150791981969366,2.108229751391795,-0.5530261238844925
2.190412918917082,15.708680671018666,-0.030896520011232886,2.068262342733908,-0.532711938594533
2.18398894542212,15.278421046878318,-0.030284179940784105,2.0294483633646565,-0.5134303030926151
2.177693450678487,14.856196963529364,-0.02967291285572163,1.9917333828158783,-0.4951029928032259
2.171526032217876,14.441782993979036,-0.029064405816764984,1.955066327187239,-0.4776594639205709
2.1654859624892713,14.034964111224593,-0.02846006778899112,1.919399222855064,-0.4610359543630038
2.1595722429752997,13.635535061670229,-0.02786107043930913,1.8846869633769747,-0.4451747049679839
2.153783650384133,13.243299785312654,-0.027268382809899756,1.8508870971713476,-0.4300232830324821
2.148118776101134,12.858070878556862,-0.026682800837705734,1.8179596338361848,-0.4155339932165935
2.142576059897864,12.479669095945958,-0.026104972526775252,1.785866867220049,-0.4016633632286551
2.137153818740704,12.107922887462614,-0.02553541944617295,1.7545732135736967,-0.38837169369488683
2.1318502714117025,11.742667968390926,-0.024974555115749714,1.72404506329951,-0.37562266326264226
2.1266635595457064,11.383746919021512,-0.024422700750879937,1.6942506449806352,-0.3633829813556866
2.121591765596877,11.03100881174435,-0.02388009876178151,1.6651599005161555,-0.351622082142408
2.1166329281711507,10.684308863307034,-0.023346924340371042,1.6367443703154263,-0.3403118542338101
2.111785055096788,10.343508110224207,-0.022823295415465444,1.6089770876162555,-0.3294264014302256
2.107046134550731,10.008473105510056,-0.022309281213650892,1.581832481089932,-0.318941830510506
2.102414144512485,9.679075635072408,-0.021804909626782353,1.5552862849829152,-0.30883606262667607
2.0978870607782287,9.355192452256414,-0.021310173556613268,1.5293154561217908,-0.29908866534844447
2.0934628637347297,9.036705029160132,-0.020825036381475124,1.5038980971761309,-0.2896807028100973
2.0891395440644924,8.723499323465038,-0.02034943666840241,1.4790133856342842,-0.28059460175916745
2.0849207386520083,8.41546582355226,-0.01982966249811021,1.4546389944874047,-0.2702868137467081
2.0808095872284595,8.112499061191333,-0.019324160583307097,1.430758742283324,-0.26046204222906477
2.0768031284356088,7.8144971558845775,-0.018832589824794643,1.4073546415905211,-0.25109184757162706
2.072898473306154,7.5213619163022365,-0.01835460188429996,1.3844095449079592,-0.24214978236688758
2.0690928064880136,7.232998669049426,-0.017889844002752495,1.361907095595005,-0.23361122979903934
2.0653833869232154,6.949316097380748,-0.017437961376278545,1.339831682201915,-0.22545325686535506
2.061767548067739,6.670226089177078,-0.016998599152067386,1.3181683959282942,-0.21765448093211043
2.05824269772653,6.395643593553633,-0.016571404097544113,1.2969029909616727,-0.2101949482744691
2.054806317567461,6.125486485518245,-0.01615602598882619,1.2760218474705847,-0.20305602340031886
2.0514559623690385,5.859675438143945,-0.01575211875805328,1.2555119370465364,-0.19622028809032963
2.048189259048904,5.598133801761293,-0.01535934143370306,1.235360790407294,-0.18967144920289833
2.0450039055135183,5.340787489713559,-0.014977358903304257,1.2155564671901788,-0.18339425439521204
2.04189766936366,5.087564870252322,-0.014605842523918328,1.1960875276787606,-0.1773744150021766
2.0388683864854085,4.83839666418249,-0.014244470602286079,1.1769430063196278,-0.17159853539495132
2.0359139595519964,4.593215847894644,-0.013892928763543488,1.1581123868979402,-0.16605404821162484
2.033032356458217,4.351957561448966,-0.013550910224832468,1.1395855792513825,-0.16072915491530596
2.030221608705879,4.114559021399309,-0.013218115987908329,1.1213528974120248,-0.1556127711905767
2.0274798097560414,3.8809594380682135,-0.012894254962925822,1.1034050390745878,-0.15069447673872374
2.024805113361372,3.6510999370041155,-0.01257904403392723,1.0857330662977782,-0.14596446907617613
2.022195731889922,3.4249234843708045,-0.012272208075122273,1.0683283873528049,-0.1414135209797841
2.019649934649824,3.2023748160365635,-0.01197347992580941,1.051182739639951,-0.13703294125753956
2.017166046222889,2.9834003701463416,-0.011682600330714752,1.0342881736002696,-0.1328145385545657
2.0147424448137463,2.767948222975029,-0.011399317851595238,1.0176370375551007,-0.12875058793211702
2.0123775606200383,2.5559680278735613,-0.011123388755147415,1.0012219634112687,-0.12483379998231674
2.0100698742281837,2.347410957132052,-0.010854576881565119,0.9850358531745274,-0.12105729226374719
2.007820123552843,2.1423674955212917,-0.010571620026442642,0.9677590193089177,-0.14341264819933355
2.0056269832408327,1.940940524267635,-0.010315430564128347,0.9505930878687672,-0.16751392676196739
2.003484842130801,1.7431070728075895,-0.010085913340935166,0.9335350212745356,-0.19325751544640626
2.001388118551014,1.5488447964007044,-0.009882882657040674,0.9165818968862678,-0.22054243600018844
1.9993312784993174,1.3581319524764126,-0.009706070216258127,0.8997309023926923,-0.24927012681943578
1.997308852220559,1.1709473779107746,-0.009555132438582078,0.8829793315657709,-0.27934423129609876
1.9953154493105436,0.9872704671578632,-0.009429657180612056,0.8663245803667174,-0.31067039129418317
1.9933457724665404,0.807081151163235,-0.00932916990513358,0.8497641433916482,-0.3431560449464104
1.9913946299960585,0.6303598769891607,-0.009253139337550818,0.8332956106471484,-0.3767102279711185
1.9894569471880492,0.4570875880831551,-0.009200982643491179,0.8169166646481627,-0.4112433777119546
1.9875277766438177,0.28724570512265757,-0.009172070158712336,0.8006250778327618,-0.44666713909989025
1.9856023076587148,0.12081610736971271,-0.009165729699410945,0.7844187102905368,-0.4828941717281349
1.9836758747400727,-0.0422188855301755,-0.009181250478134648,0.7682955078036394,-0.5198379572153531
1.9817439653418587,-0.20187653137075046,-0.009217886647710399,0.7522535002018701,-0.5574126060108867
1.979802226892095,-0.3581736828956963,-0.009274860492898308,0.7362908000357278,-0.5955326627670288
1.9778464731852228,-0.5111268050647197,-0.009351365286836678,0.7204056015740313,-0.6341129093673084
1.9758726902082977,-0.6607519921442346,-0.009446567826735542,0.7045961801356301,-0.6730681646556429
1.9738770414671194,-0.807064984694108,-0.009559610660677176,0.6888608917678932,-0.7123130798584276
1.9718558728761977,-0.9500811865249901,-0.009689614014765521,0.6731981732881593,-0.7517619286293856
1.969805717274791,-1.0898156817046072,-0.009835677427203909,0.6576065427081923,-0.79132839057442
1.9677232986301547,-1.2262832516958966,-0.00999688109314101,0.6420846000660073,-0.8309253270297857
1.965605535988641,-1.3594983927157287,-0.010172286921275829,0.6266310286942753,-0.8704645477705362
1.9634495472353843,-1.4894753334094233,-0.010360939300217451,0.6112445969599805,-0.9098565672161473
1.9612526527240728,-1.6162280529444217,-0.010561865569414724,0.5959241605162077,-0.9490103485751454
1.959012378839748,-1.7397702996355946,-0.010774076186061122,0.5806686651139953,-0.9878330342290074
1.956726461559764,-1.8601156102257406,-0.010996564575691864,0.5654771500302489,-1.026229660496023
1.9543928500810483,-1.977277329957495,-0.011228306650169165,0.5503487521769527,-1.0641028547366504
1.9520097105856853,-2.091268633587667,-0.011468259972335911,0.5352827109675211,-1.1013525125615935
1.9495754302217077,-2.202102547512233,-0.011715362541738395,0.5202783740283417,-1.1378754526809771
1.9470886213819334,-2.309791973190258,-0.011968531170396424,0.5053352038576238,-1.1735650466864627
1.9445481263708297,-2.4143497120780495,-0.01222665941154439,0.49045278554988997,-1.20831082078732
1.9419530225578825,-2.515788492311721,-0.012488614997477535,0.4756308357231618,-1.241998026226641
1.9393026281259726,-2.61412099740744,-0.012753236734995992,0.4608692128074763,-1.2745071747866796
1.9365965085349757,-2.7093598972844433,-0.013019330798309777,0.44616792887824147,-1.3057135354565654
1.9338344838344563,-2.801517881957544,-0.013285666349492863,0.4315271632465347,-1.335486587988341
1.9310166369751853,-2.890607698293806,-0.013550970405468583,0.4169472780512281,-1.3636894287202797
1.9281433232875367,-2.9766421902833855,-0.013813921857851264,0.40242883613521835,-1.3901781237186175
1.9252151813160254,-3.059634343338274,-0.014073144537493393,0.38797262153039686,-1.4148010040094945
1.9222331452236976,-3.139597333205934,-0.014327199198963312,0.373579662923516,-1.4373978974865111
1.9191984590083029,-3.2165445801683035,-0.014574574280986064,0.35925126052763784,-1.4577992920525167
1.9161126928047594,-3.2904898092919836,-0.014813675276569922,0.34498901684071304,-1.4758254247860338
1.912977761586081,-3.3614471176026584,-0.015042812520368399,0.3307948718323928,-1.4912852925592228
1.909795946618619,-3.4294310491767845,-0.015260187169747044,0.3166711431592726,-1.5039755807905932
1.906569920078351,-3.4944566792749967,-0.015463875118518195,0.30262057206181225,-1.5136795092077204
1.903302773294616,-3.5565397087830277,-0.0156518085361028,0.2886463756337201,-1.5201655970869619
1.8999980491583446,-3.615696570371483,-0.015821754666480017,0.27475230616112645,-1.5231863561100463
1.896659779316619,-3.6719445479272466,-0.01597129144519187,0.26094271817948556,-1.5224769277332846
1.8932925268789171,-3.7253019109299785,-0.016097779390065597,0.247222643751305,-1.5177536952786177
1.8899014354897847,-3.7757880655212404,-0.016198329077860896,0.2335978761654786,-1.508712920999148
1.8864922857889397,-3.8234237239973936,-0.016269763311139135,0.22007506170266838,-1.495029488346583
1.883071560500624,-3.868231094282123,-0.016308572768057444,0.20666179815188387,-1.4763558742872605
1.8796465196980634,-3.9102340904912793,-0.016310863446807176,0.19336673717341382,-1.4523215426935712
1.8762252882233403,-3.9494585648235514,-0.016272293455317065,0.18019968503868183,-1.42253304765816
1.8728169578863723,-3.9859325594365984,-0.016187995468188814,0.1671716922284315,-1.3865752795368946
1.8694317080505702,-4.019686574311287,-0.016052479158494868,0.15429511610196267,-1.3440144969835683
1.866080949758875,-4.050753842794116,-0.015859504571936075,0.1415836313535765,-1.2944040925601936
1.8627775010366077,-4.079170599729991,-0.015601911830612101,0.12905214898807132,-1.2372944714107688
1.8595358050587512,-4.104976316779279,-0.01527138319659151,0.11671658481466746,-1.1722490157123155
1.8563722095497432,-4.128213864405538,-0.014858097841579081,0.10459339257830066,-1.0988688746282747
1.8533053368582542,-4.148929539123827,-0.014350213505936099,0.09269874759586663,-1.0168301947669294
1.8503565925134118,-4.16717286840592,-0.013733065968752232,0.08104724556694576,-0.9259381135263625
1.8475508904175808,-4.182996079156041,-0.012987906372495795,0.06964999967227026,-0.826201616197024
1.8449177228690588,-4.196453104846491,-0.012089879803904741,0.058512149760563306,-0.7179304925454162
1.842492787264761,-4.207598049770553,-0.011004744998931478,0.04763018284956769,-0.6018469526936446
1.8403205311077317,-4.216483204449034,-0.009683408877536487,0.036990337897876154,-0.47918582246196817
1.8384582989358158,-4.2231571526933465,-0.008052135616903286,0.026571073952707178,-0.35172754177056564
1.8369837071158859,-4.227664507401414,-0.005991596001477334,0.01635611374314224,-0.22167901512122384
1.8360109199784385,-4.230051605566729,-0.003273043402782598,0.006378154497947756,-0.09131933973290501
