x,y,v_x,v_y,omega
2.375,32.48,0.0,3.6923076923076925,-2.0
2.374538336448244,31.823608996804346,-0.005129595019511418,3.6009256765328668,-1.8630656277979334
2.373226867980172,31.183310480491254,-0.009442276847953927,3.5135022825015048,-1.7402471462043758
2.3712013846684186,30.558415831137815,-0.013063093282638799,3.429771599203362,-1.6296691500910594
2.3685770293998822,29.948282166832882,-0.01609640970110145,3.3494913375181126,-1.5297491932952396
2.3654516842207505,29.352308328060754,-0.018629647844804115,3.272440204394408,-1.4391460684632695
2.361908749893123,28.76993130288643,-0.020736289128838976,3.198415630875865,-1.356718184834849
2.3580194369747702,28.200623034358994,-0.022478298852856255,3.127231797206782,-1.2814898940756083
2.3538446617995654,27.64388756080524,-0.02390809198275148,3.0587179089460133,-1.2126241084381342
2.3494366214453906,27.09925844722579,-0.02507013417474988,2.992716686381226,-1.149399927980226
2.3448401067647957,26.566296472198403,-0.026002251165188218,2.929083036145324,-1.0911942762387603
2.3400936008077684,26.044587539816376,-0.026736703912893074,2.8676828792104865,-1.037466759701586
2.3352302007272696,25.533740790456235,-0.027301074759319824,2.808392113680007,-0.9877471324154642
2.3302783939554974,25.033386887743248,-0.027719000482589937,2.7510956942420757,-0.9416248754207842
2.325262713639077,24.54317646209467,-0.028010780810969065,2.6956868129642926,-0.8987405005061033
2.320204293694438,24.06277869376978,-0.028193885240578483,2.6420661684234235,-0.8587782657923665
2.3151213401374173,23.591880020524307,-0.028283376504097922,2.5901413120817756,-0.8214600519542674
2.3100295323584517,23.130182956819397,-0.028292265484406224,2.539826062417233,-0.786540196282278
2.3049423656054806,22.677405013123426,-0.028231809548605127,2.4910399786491126,-0.7538011201772391
2.2998714439831796,22.233277705212803,-0.028111764032520477,2.4437078870244986,-0.7230496162559309
2.29482673168737,21.797545644558614,-0.027940594809805697,2.397759453577595,-0.6941136857211948
2.289816768895097,21.36996570190957,-0.02772565843767055,2.3531287980784095,-0.6668398363161209
2.2848488576668995,20.950306237071104,-0.027473355208973024,2.309754144571237,-0.6410907670465068
2.2799292223430667,20.538346388655786,-0.027189259500275554,2.2675775044878637,-0.6167433787031532
2.2750631481942283,20.13387541825795,-0.02687823104237722,2.2265443888213903,-0.5936870596580408
2.2702551014897607,19.736692104099067,-0.026544510118372222,2.1866035462773437,-0.5718222049265757
2.2655088336523197,19.34660417971198,-0.026191799186525644,2.1477067246902712,-0.5510589334605746
2.260827471754714,18.963427813691474,-0.025823333009098125,2.1098084533153583,-0.5313159743630372
2.2562135972715427,18.586987126943598,-0.025441939026133637,2.0728658438832954,-0.5125196974339828
2.2516693147103872,18.217113744224697,-0.02505008943115083,2.036838408548929,-0.49460326735638793
2.2471963115060634,17.853646377078505,-0.02464994617245026,2.001687893075439,-0.47750590406434
2.2427959103586086,17.496430435561486,-0.02424339991037832,1.967378123780305,-0.4611722345238004
2.2384691150246625,17.14531766639748,-0.023832103800135278,1.933874866930881,-0.44555172339805205
2.2342166504274346,16.800165815425974,-0.02341750283573207,1.901145699419184,-0.4305981719443816
2.2300389978281308,16.460838312407933,-0.023000859378750186,1.8691598896701562,-0.4162692760601953
2.225936425697882,16.127203976431346,-0.02258327540179043,1.8378882878474954,-0.4025262357179794
2.2219090168409217,15.799136740318442,-0.022165711897771202,1.8073032245181004,-0.3893334091420237
2.217956692244523,15.476515392579838,-0.021749005839990197,1.7773784170219245,-0.37665800602062294
2.2140792320669447,15.159223335589566,-0.021333885021992963,1.7480888828699823,-0.364469814844257
2.210276294119649,14.847148358770806,-0.020920981059070254,1.7194108595606779,-0.3527409601366656
2.206547430152944,14.540182425686538,-0.02051084079321096,1.6913217302645362,-0.34144568592127583
2.202892100213709,14.238221474023458,-0.020103936309393097,1.663799954880786,-0.33056016225624707
2.1993096853090632,13.941165227542676,-0.019700673742229443,1.6368250060168115,-0.3200623120908581
2.1957994985797975,13.648917019147603,-0.01930140102738953,1.6103773094839933,-0.30993165605520695
2.1923607951615223,13.361383624289314,-0.01890641473122441,1.5844381889414585,-0.3001491731035052
2.188992780889046,13.078475103992783,-0.01851596607406531,1.5589898143533103,-0.29069717519638755
2.185694619980125,12.800104656844997,-0.018130266247284522,1.5340151539554359,-0.281559194436112
2.182465441817879,12.526188479338021,-0.017749491111004875,1.509497929455421,-0.2727198812657603
2.179304346936569,12.256645634007796,-0.01737378534799508,1.4854225742137634,-0.26416491251414254
2.1762123469686037,11.991398099753209,-0.01698176985161486,1.461772250837222,-0.255319102768983
2.17319014461719,11.730370469091497,-0.01659825627520483,1.4385347565151185,-0.24684388592404952
2.1702362189635207,11.473489662484916,-0.01622313987667809,1.4156964280024469,-0.23871960726480293
2.1673490691140285,11.220685008438569,-0.01585630289545845,1.3932441725125029,-0.23092785090415385
2.1645272163445224,10.971888143521035,-0.015497616765721204,1.371165437682299,-0.22345134920706172
2.161769205870869,10.72703291762264,-0.01514694405264775,1.3494481834109582,-0.2162738997235735
2.159073608293075,10.486055304126438,-0.014804140145063892,1.3280808554357426,-0.20938028893578017
2.1564390207539845,10.248893314690292,-0.014469054733720524,1.3070523605214497,-0.20275622219494263
2.153864067848869,10.015486918359954,-0.014141533100892277,1.2863520431489741,-0.19638825928794598
2.151347402317843,9.785777964752729,-0.01382141724384351,1.265969663597995,-0.19026375512823357
2.148887705549219,9.55971011106947,-0.013508546851980609,1.2458953773270787,-0.18437080511626353
2.1464836879185794,9.337228752709446,-0.013202760155122364,1.2261197155620962,-0.17869819475904947
2.1441340889853775,9.11828095727789,-0.01290389465823119,1.2066335670107742,-0.17323535317810942
2.1418376775662864,8.902815401790441,-0.012611787776117956,1.1874281606275408,-0.1679723101707114
2.139593251702233,8.690782312891688,-0.012326277380028772,1.1684950493586035,-0.1628996565211424
2.1373996385340353,8.48213340991719,-0.012047202266614222,1.1498260948024968,-0.15800850728726884
2.135255694099771,8.27682185063961,-0.011774402558544872,1.1314134527261768,-0.15329046781326386
2.1331603030654565,8.074802179549948,-0.011507720044950036,1.1132495593811893,-0.14873760224238242
2.1311123783992096,7.876030278534476,-0.01124699846890056,1.0953271185685027,-0.14434240432435086
2.1291108609978604,7.680463319816919,-0.010992083768314611,1.0776390894043444,-0.14009777033055826
2.127154719273879,7.488059721043676,-0.010742824275923837,1.0601786747428095,-0.13599697390701618
2.12524294870955,7.298779102397546,-0.010499070883283435,1.042939310214173,-0.1320336427101871
2.123374571384464,7.1125822456326055,-0.010260677173232825,1.0259146538407415,-0.12820173668444654
2.1215486354816493,6.92943105492941,-0.01002749952470442,1.009098576194758,-0.12449552785229077
2.1197642147770264,6.749288519476,-0.009799397193328197,0.9924851510653396,-0.12090958149957347
2.1180222990182,6.5723351179114395,-0.009555222349191143,0.9736637552075548,-0.164876469717947
2.1163208778455997,6.398760603889105,-0.009349457346366587,0.9549419561517112,-0.20988241550815098
2.11465314908746,6.228547270183995,-0.009180862188520903,0.9363173072384119,-0.25583266123845383
2.113012535398226,6.061677841698867,-0.00904817880296185,0.9177874537074722,-0.3026335653196504
2.111392687258834,5.898135459114048,-0.00895013385695305,0.8993501305683049,-0.35019239724082796
2.1097874854985066,5.737903662891771,-0.008885441257796192,0.8810031607903279,-0.39841713232730147
2.1081910433934943,5.580966377577166,-0.008852804353450695,0.8627444538163769,-0.44721624530094894
2.1065977083953658,5.427307896337261,-0.008850917847975339,0.844572004404785,-0.49649850168801096
2.1050020635391227,5.2769128656780495,-0.00887846944361392,0.8264838918086674,-0.5461727460758535
2.103398928579498,5.129766270277901,-0.008934141218881706,0.808478279304076,-0.5961476861675215
2.1017833609023424,4.985853417873145,-0.009016610749515023,0.7905534140821195,-0.6463316715203249
2.100150656256993,4.845159924128598,-0.00912455197659409,0.7727076275239354,-0.6966324657812517
2.0984963493549835,4.7076716974221,-0.009256635823508828,0.7549393358816165,-0.7469570111466226
2.0968162143804068,4.573374923467391,-0.009411530560675486,0.7372470413929265,-0.7972111836748659
2.095106265457687,4.442256049694361,-0.009587901913992206,0.7196293338629642,-0.8472995379682172
2.0933627571235363,4.314301769299018,-0.009784412909903695,0.7020848927519749,-0.897125039610003
2.091582184851452,4.189499004867958,-0.009999723446584475,0.6846124898153734,-0.9465887835972304
2.089761285679321,4.067834891473083,-0.010232489577096384,0.6672109923498868,-0.99558969684162
2.0878970389936087,3.9492967591218076,-0.010481362486373227,0.6498793671087184,-1.044024222623946
2.085986667527283,3.8338721144357173,-0.010744987139469973,0.6326166849589613,-1.0917859846744566
2.0840276386331054,3.721548621416435,-0.011022000573614087,0.6154221263664009,-1.138765428314013
2.0820176658993783,3.612314081140866,-0.011311029801130907,0.5982949878065859,-1.1848494358242179
2.079954711181699,3.5061564102087495,-0.011610689284190493,0.5812346892169432,-1.229920912918172
2.077836987131933,3.4030636177431433,-0.011919577935434368,0.5642407826231136,-1.2738583428549275
2.075662960314575,3.303023780718604,-0.012236275590765545,0.5473129620940003,-1.3165353043792725
2.073431355011145,3.2060250173617177,-0.012559338891785126,0.5304510752047271,-1.3578199492744025
2.071141157825401,3.112055458333913,-0.012887296505372976,0.5136551362153111,-1.397574434890497
2.068791623216228,3.0211032153660007,-0.013218643596552502,0.496925341205949,-1.435654306562381
2.066382280101333,2.933156346967145,-0.013551835457833429,0.4802620854480164,-1.4719078243640342
2.063912939693619,2.8482028207767804,-0.013885280183435758,0.463665983333818,-1.5061752281832819
2.0613837047537227,2.7662304720652813,-0.014217330259857568,0.4471378912384092,-1.5382879346633191
2.0587949804671046,2.687226957816872,-0.014546272924787662,0.4306789337439294,-1.5680676591906342
2.056147487182721,2.6111797057450232,-0.014870319123919985,0.41429053372107427,-1.5953254558754666
2.0534422752833392,2.5380758574951265,-0.01518759086921024,0.3979744468333526,-1.6198606684679635
2.050680742495653,2.467902205180536,-0.015496106771746645,0.3817328011065283,-1.6414597855256055
2.0478646539924,2.400645120275243,-0.01579376548661848,0.3655681422856242,-1.6598951941110545
2.044996165689805,2.336290473749319,-0.016078326764439498,0.34948348578020183,-1.6749238281745558
2.0420778512032998,2.2748235461831,-0.016347389752281515,0.33348237606668224,-1.6862857110359477
2.0391127329945884,2.2162289264357398,-0.01659836812229197,0.31756895445955036,-1.693702396731103
2.0361043183264327,2.1604903972802347,-0.016828461523883523,0.3017480361571547,-1.6968753234681135
2.0330566407420916,2.1075908062625004,-0.01703462274657149,0.2860251973732158,-1.6954841055955965
2.0299743079100736,2.05751191991817,-0.017213519831407332,0.2704068731193632,-1.6891848106155682
2.0268625568311585,2.0102342594237257,-0.017361492156540433,0.2549004657077987,-1.677608298291021
2.023727317608323,1.965736915827339,-0.017474499208295594,0.2395144631409248,-1.660358744881059
2.0205752872554252,1.9239973432942428,-0.017548060268348153,0.22425856500459757,-1.6370125445224397
2.0174140154072084,1.8849911294617918,-0.017577182489613864,0.20914381091152567,-1.6071178829079695
2.0142520043583145,1.8486917432648937,-0.017556273609209805,0.19418270238732366,-1.5701954320094258
2.011098826715673,1.8150702628234185,-0.01747903353125168,0.1793893025179598,-1.525740842151006
2.0079652652897466,1.7840950897227223,-0.017338315645705364,0.1647792874897636,-1.47323004202805
2.004863482005389,1.7557316620606045,-0.017125943069375565,0.15036990875597142,-1.4121288412998374
2.001807226147337,1.7299421880833847,-0.01683245535342765,0.13617980210202324,-1.3419090137375087
1.9988120981330488,1.7066854364896287,-0.016446744805329976,0.12222854893969771,-1.2620739603376763
1.995895894861819,1.6859166399651357,-0.015955513763890827,0.10853585688801243,-1.1721981870164826
1.9930790792621333,1.667587595722427,-0.01534243734372694,0.09512019025318369,-1.071985960593628
1.990385444469824,1.6516470777695886,-0.014586838126378879,0.08199667588948267,-0.9613549177497251
1.9878430895628114,1.6380416980096406,-0.013661549729315195,0.06917421033215104,-0.8405483229080797
1.9854859019144702,1.6267173338576377,-0.012529424141143131,0.05665205802344598,-0.7102714777844686
1.9833558785708156,1.6176211060918675,-0.011137501899462103,0.044417139373982215,-0.5718278431546894
1.9815068982248831,1.6107035060561117,-0.009406724166454954,0.032445083245519854,-0.42719459793025805
1.9800113120832017,1.6059193818939868,-0.007210899630004552,0.020711851889187283,-0.27893453854276057
1.978973728996734,1.6032242083768011,-0.004317801330748943,0.009234520523968651,-0.12982646332449496
1.9785778660787001,1.6025492599266151,-8.067553629222558e-05,-0.0017350932996845446,0.01774045893843265
