x,y,v_x,v_y,omega
2.375,32.48,0.0,2.5128205128205128,-6.530612244897959
2.3734211832318777,31.908692145688477,-0.013728841461933898,2.455073872497039,-6.133278748085058
2.36890684528407,31.350399597038663,-0.025526271127699486,2.3996439418491793,-5.771901908892385
2.361871258767277,30.804607863897676,-0.035652742061802765,2.346371128942015,-5.44220813776552
2.352673237953233,30.270837285016796,-0.04433004762553751,2.2951121656743307,-5.140533326649274
2.3416242866386865,29.748639540890604,-0.051747789892257263,2.245737783249081,-4.863722084945865
2.328995399473694,29.237594652534145,-0.058068620238112593,2.1981308111549014,-4.609045980783786
2.3150227687278684,28.737308379317284,-0.06343251668210959,2.15218460812215,-4.374136740119779
2.2999125950183914,28.247409947464412,-0.06796029818290734,2.1078017558158724,-4.156931320295964
2.2838451598682066,27.76755005487144,-0.07175652921000585,2.0648929623838836,-3.9556264846037124
2.2669782866820647,27.297399108661324,-0.07491193327818145,2.0233761350953716,-3.7686410334784
2.2494502924080653,26.836645660233092,-0.07750540823485921,1.9831755903675183,-3.59458424660849
2.231382513064373,26.384995009064525,-0.0796057164928964,1.9442213763156608,-3.432229393696315
2.212881471200221,25.94216795164909,-0.08127290841277647,1.9064486881663991,-3.280491404760135
2.194040741304708,25.507899656010398,-0.08255952546124866,1.8697973608656935,-3.1384079715533795
2.174942559490365,25.08193864548619,-0.0835116207504297,1.83421142630133,-3.005123492821151
2.15565921594496,24.664045878090622,-0.0841696274704812,1.7996387249644992,-2.8798753871826337
2.1362542622727387,24.253993909886965,-0.08456910011405391,1.7660305637629332,-2.7619823854264394
2.116783560634569,23.851566132537386,-0.0847413489135094,1.733341413189957,-2.6508344841675866
2.0972961973128186,23.456556076622828,-0.08471398431910218,1.701528638240961,-2.54588429908446
2.0778352797898103,23.06876677350685,-0.08451138544618912,1.670552258419721,-2.4466396013298866
2.058438633495921,22.688010169500075,-0.08415510406589069,1.6403747329435578,-2.352656857488854
2.039139411942041,22.314106586905577,-0.08366421379393521,1.610960767878139,-2.2635356234082717
2.019966631911405,21.946884227218973,-0.08305561255941848,1.582277142440149,-2.1789136667280213
2.000945643675885,21.586178712344264,-0.08234428514075832,1.5542925521225437,-2.098462713073457
1.9820985447637351,21.23183266018647,-0.08154353148663274,1.5269774666408882,-2.0218847274739495
1.9634445445927042,20.883695291409538,-0.08066516565276645,1.5003040009845847,-1.9489086563193985
1.9450002862561924,20.54162206451541,-0.07971968944733684,1.4742457980948236,-1.8792875665892261
1.9268142194868454,20.20548228929612,-0.0784200215904625,1.4487087690293936,-1.804991032906424
1.9089293233861844,19.875150331778983,-0.0771008140674594,1.4237430354674674,-1.7344769316861888
1.8913494476636408,19.5504974069978,-0.07576767047639708,1.3993258756732738,-1.6675037803804753
1.8740772334722375,19.231399820215202,-0.07442549640537051,1.3754357485232347,-1.6038484483641788
1.857114264676973,18.917738704332695,-0.07307858007519209,1.3520522156724581,-1.5433045412609516
1.8404612016754731,18.609399774487276,-0.07173066341610956,1.3291558699398889,-1.485680946578811
1.8241178998334178,18.306273098472026,-0.0703850047756759,1.306728269323172,-1.4308005226674678
1.808083514340241,18.008252881746152,-0.06904443429542749,1.2847518761191796,-1.3784989152239782
1.7923565930676841,17.71523726591392,-0.0677114028572384,1.263210000682843,-1.328623487489586
1.7769351588200955,17.427128139653632,-0.06638802538266377,1.2420867494066208,-1.281032351942185
1.761816782196841,17.14383096116902,-0.06507611916737563,1.2213669765465573,-1.2355934927324699
1.7469986461403595,16.86525459131684,-0.0637772378455053,1.2010362395593208,-1.1921839693686107
1.7324776031152473,16.59131113663794,-0.06249270150329736,1.181080757648517,-1.1506891932504364
1.7182502257518018,16.321915801584776,-0.06122362339622948,1.1614873732485766,-1.1110022696119446
1.7043128516895067,16.056986749298062,-0.05997093366720434,1.14224351620111,-1.073023398269393
1.6906616232701293,15.796444970338676,-0.05873540041434008,1.123337170402244,-1.036659327307432
1.6772925226548439,15.54021415882956,-0.05751764841422755,1.1047568427204943,-1.0018228544814924
1.6642014028737275,15.288220595506303,-0.056318175769393145,1.0864915340034755,-0.968432371682751
1.6513840152578676,15.040393037214926,-0.05513736871634633,1.0685307120085081,-0.9364114483125782
1.6388360336532175,14.796662612431621,-0.05397551480235043,1.0508642861071886,-0.9056884498551454
1.6265530757702935,14.556962722412141,-0.052832814614379664,1.03348258362743,-0.8761961883272997
1.614530721984094,14.321228947608503,-0.05170939222213742,1.016376327708561,-0.8478716016303931
1.6027645318635664,14.089398959018087,-0.05060530447810238,0.999536616555938,-0.8206554591350506
1.591250058678971,13.861412434155152,-0.04952054930098793,0.9829549039913088,-0.7944920911017224
1.579992939983554,13.637336367347388,-0.048367439354813295,0.9655326334675142,-0.7912445581163469
1.5689964908456446,13.417251989370477,-0.04725385749657082,0.9482445663317158,-0.7906826956056155
1.5582516213181679,13.201128909967004,-0.046179790568444436,0.9310865589158923,-0.7926600459455485
1.5477492602445349,12.988937671178725,-0.04514508833271309,0.9140546479387194,-0.7970351899564492
1.537480385343959,12.780649706880855,-0.044149476020120995,0.8971450416079745,-0.8036713843775726
1.5274360505290323,12.576237304284476,-0.04319256584880532,0.8803541114040172,-0.8124362158565963
1.5176074106832838,12.375673567254985,-0.04227386759248591,0.8636783845045841,-0.8232012698561515
1.5079857441090843,12.178932381303177,-0.0413927982701194,0.847114536815474,-0.8358418129666505
1.4985624728403504,11.98598838011318,-0.04054869102321874,0.8306593865757872,-0.8502364871900467
1.4893291809999094,11.796816913478285,-0.03974080324148534,0.8143098885102646,-0.8662670148236481
1.48027763136803,11.61139401652153,-0.03896832399224962,0.7980631285049867,-0.8838179126272442
1.4713997803164127,11.429696380083033,-0.03823038080442222,0.7819163187862868,-0.9027762140010405
1.4626877912507878,11.251701322160194,-0.037526045853183664,0.7658667935862377,-0.9230311979365484
1.4541340466951151,11.077386760290402,-0.0368543415874482,0.7499120052815318,-0.944474123527895
1.4457311591411666,10.906731184768482,-0.0362142458381922,0.7340495209960297,-0.9669979688471152
1.4374719807789436,10.739713632592952,-0.035604696442007575,0.7182770196607445,-0.9904971729939153
1.429349612215883,10.576313662036178,-0.03502459541069346,0.7025922895285999,-1.0148673801280768
1.4213574102861082,10.416511327733716,-0.03447281267430573,0.6869932261449986,-1.0400051842809797
1.4134889950450544,10.260287156187442,-0.03394818942181289,0.6714778307791136,-1.0658078737213994
1.4057382560396081,10.107622121575478,-0.03344954106033006,0.6560442093249208,-1.0921731736194735
1.3980993579394292,9.958497621759292,-0.032975659810790155,0.640690571685394,-1.1189989857111333
1.3905667456113826,9.812895454374797,-0.03252531695483244,0.6254152316580428,-1.1461831236128697
1.3831351487159464,9.670797792889427,-0.03209726474461362,0.6102166073451726,-1.1736230423729328
1.3757995859021395,9.532187162501167,-0.03169023798414195,0.5950932221179619,-1.2012155607693562
1.368555368675893,9.397046415748076,-0.03130295528756765,0.5800437061697905,-1.2288565747769515
1.361398105015914,9.265358707687898,-0.030934120016596282,0.565066798701308,-1.2564407605240602
1.35432370281099,9.13710747049667,-0.030582420895787006,0.5501613507876426,-1.2838612649448586
1.3473283731933696,9.012276387322583,-0.03024653230091244,0.5353263289870381,-1.3110093822040405
1.340408633844414,8.890849365216646,-0.029925114211744323,0.520560819760237,-1.3377742138276447
1.3335613123511616,8.772810506944374,-0.029616811816538014,0.5058640347812642,-1.364042310317015
1.3267835496958877,8.658144081462723,-0.029320254751061096,0.49123531723310054,-1.3896972918533463
1.3200728039652447,8.546834492823344,-0.029034055950181503,0.47667414919627416,-1.4146194455200096
1.3134268543712306,8.438866247236465,-0.028756810084724027,0.46218016025484854,-1.438685296282266
1.3068438056831875,8.334223917998926,-0.028487091550433788,0.4477531374628855,-1.461767148774649
1.3003220931784125,8.232892107954623,-0.028223451969348994,0.4333930368354052,-1.4837325967637658
1.2938604882289328,8.134855409115147,-0.02796441715656059,0.4190999965513519,-1.5044439969914205
1.287458104653765,8.040098359022288,-0.027708483497072375,0.40487435208221323,-1.5237579039788358
1.281114405979772,7.9486053933816265,-0.02745411366808347,0.3907166534887413,-1.5415244623150495
1.2748292137703485,7.8603607944370815,-0.027199731631251653,0.3766276851594794,-1.5575867530014387
1.2686027171999452,7.775348634489472,-0.026943716807038744,0.36260848829798814,-1.5717800906373924
1.2624354840743413,7.693552713887733,-0.02668439732864737,0.3486603864997332,-1.5839312686919773
1.2563284735221394,7.614956492739104,-0.02642004225571627,0.33478501479268624,-1.5938577509309593
1.2502830506129312,7.539543015495305,-0.026148852606964083,0.32098435254468827,-1.6013668084260262
1.2443010031929482,7.467294827476707,-0.025868951045061508,0.307260760660519,-1.6062546037035863
1.23838456127113,7.398193882298877,-0.02557837001422884,0.2936170234945144,-1.6083052268366653
1.2325364193393216,7.332221439071009,-0.02527503808845267,0.28005639587825454,-1.60728969313443
1.2267597620725552,7.269357948152322,-0.02495676423125491,0.266582655588593,-1.6029649192388908
1.2210582939331605,7.2095829241951,-0.02462121958956831,0.2532001614307292,-1.595072704897367
1.215436273302021,7.152874805193807,-0.024265916333384163,0.23991391684138408,-1.5833387628726563
1.2098985518911147,7.0992107963336295,-0.023888182891887752,0.22672963846451868,-1.5674718614249812
1.204450620368297,7.048566697641725,-0.023485134697832068,0.21365382842160582,-1.5471631754658395
1.1990986613711756,7.000916714870389,-0.023053639190180424,0.20069384785089092,-1.5220859879802362
1.1938496114384047,6.95623325380236,-0.02259027326869751,0.18785798752328775,-1.491895948456796
1.1887112339018473,6.9144866994402285,-0.022091270527453657,0.17515552866916612,-1.4562321879067488
1.1836922055546586,6.875645183578268,-0.02155245423070972,0.16259678317397513,-1.4147197214419498
1.1788022210871347,6.8396743474154675,-0.020969149834714686,0.15019309650254345,-1.3669737532501531
1.1740521211024373,6.8065371106428785,-0.020336067423524885,0.13795678847648127,-1.3126067514382012
1.1694540523685777,6.776193465453471,-0.019647138957863047,0.12590099577923677,-1.2512394967898357
1.1650216734348788,6.748600323888198,-0.018895286552561428,0.11403936565792795,-1.1825177341214048
1.1607704257863467,6.723711460427449,-0.01807208430423911,0.10238553400076962,-1.1061365365303533
1.1567179017855111,6.701477608640559,-0.017167254833460887,0.0909523076243724,-1.0218749124972364
1.1528843579620456,6.681846788881753,-0.01616790884884831,0.07975047288699476,-0.9296432332199547
1.1492934490651985,6.664764956643442,-0.015057385906343703,0.0687871987504872,-0.8295450553251013
1.1459732999171461,6.6501770519389645,-0.013813476250633665,0.058064146505823803,-0.7219515995066854
1.1429580984542584,6.638028466050443,-0.012405666904910954,0.04757573078565283,-0.6075796436812356
1.1402905105643177,6.6282667654677,-0.010790749529356625,0.03730862210776191,-0.48755029434696273
1.1380254751050258,6.620843131105449,-0.008905210986225471,0.0272447201726946,-0.3633886192263891
1.1362366981081304,6.6157121894399324,-0.0066493715954743,0.01737216387528536,-0.23691170339557766
1.1350302604959233,6.612826807086218,-0.003841390249804996,0.007718117461368005,-0.10996160941471664
