x,y,v_x,v_y,omega
2.375,32.48,0.0,2.6666666666666665,-2.8571428571428577
2.3742407437032784,31.873912169473073,-0.006602228667142569,2.6036622944370342,-2.674431792321041
2.372076128739047,31.282023008203232,-0.012220510152264868,2.5431999774745986,-2.509131930124993
2.3687163684914285,30.703766616627004,-0.016994796348762546,2.4851164710143623,-2.359088942921771
2.364341964415293,30.138613006518007,-0.0210434999654616,2.429262747324742,-2.2224635135908692
2.3591082417785434,29.586065016304524,-0.024467131658444687,2.375502384966416,-2.097679017370435
2.3531491261738418,29.04565557027317,-0.027351264904181927,2.3237101892192698,-1.9833788712639502
2.3465802998462753,28.51694523319358,-0.02976896403117625,2.273771002777146,-1.878391588533951
2.3395018491438906,27.999520020315536,-0.03178278120695398,2.2255786744232346,-1.781702009757344
2.332000492664081,27.49298942936458,-0.033446405573997626,2.179035159932913,-1.6924275119695333
2.324151462533369,26.996984666509096,-0.03480603034523709,2.1340497344625886,-1.6097982503884853
2.3160200976699286,26.511157042595585,-0.03590149020641831,2.090538299567947,-1.5331406824682343
2.307663197045293,26.03517651947606,-0.03676721087736824,2.048422771036634,-1.4618637757416435
2.2991301722822395,25.568730389152513,-0.03743300445353433,2.007630536124611,-1.3954474195111355
2.2904640319393335,25.111522070867355,-0.03792473765869172,1.9680939707028722,-1.333432653693228
2.2817022241841576,24.66327001327472,-0.038264894995010686,1.9297500083635197,-1.2754134018330552
2.2728773599716474,24.223706690512678,-0.03847305467898883,1.8925397547846488,-1.2210294538683393
2.26401783510665,23.79257768241983,-0.03856629197316381,1.8564081416749223,-1.169960490974962
2.255148366512495,23.369640830349432,-0.038559521889050714,1.8213036154589552,-1.1219209823205205
2.2462904555174603,22.954665461067215,-0.038465791111255684,1.7871778565603331,-1.0766558137519275
2.2374627889034713,22.54743167210513,-0.03829652727125608,1.753985525718671,-1.0339365328679742
2.2286815867527787,22.14772967270727,-0.038061752299984423,1.7216840342627155,-0.9935581147601383
2.219960904711893,21.755359175164948,-0.0377702654468475,1.6902333356705255,-0.9553361688691768
2.211312897114376,21.370128831912027,-0.0374298006185151,1.6595957360940097,-0.9191045206274231
2.2027480464220273,20.991855714251965,-0.03704716192364956,1.6297357218195743,-0.8847131124103244
2.1942753636228525,20.620364829025576,-0.03662834067787029,1.6006198018881437,-0.8520261772598208
2.1859025635357536,20.25548866991239,-0.03617861660124952,1.5722163643135227,-0.8209206462281934
2.1776362183931703,19.8970668003961,-0.03570264550817286,1.5444955445237547,-0.7912847563128376
2.1694818925852664,19.544945465722655,-0.03520453543012035,1.5174291048105524,-0.7630168310416848
2.161444261037348,19.198977231442683,-0.034687912812647936,1.4909903237109272,-0.7360242100121931
2.1535419953541743,18.85902199491893,-0.03402744095407916,1.46514216779999,-0.7067575905211341
2.1457916528048107,18.524945228635943,-0.033366842083869336,1.4398731911825144,-0.6789891116533122
2.138193055316529,18.19661634506773,-0.03270791868379594,1.4151605789758277,-0.6526227308313187
2.13074563959666,17.87390987056983,-0.03205221801071445,1.3909826775276748,-0.6275697267481928
2.1234485122257594,17.55670518679456,-0.031401063475380464,1.3673189205181315,-0.6037480538031692
2.1163004979811717,17.244886288459295,-0.0307555821297307,1.3441497606581012,-0.5810817609630343
2.109300182227988,16.938341556236985,-0.030116728767516133,1.3214566064924012,-0.5595004678879839
2.1024459481062245,16.636963543645926,-0.02948530707390815,1.2992217638646646,-0.5389388920363583
2.0957360091496673,16.340648776912314,-0.028861988200500465,1.277428381644986,-0.5193364212215587
2.0891684378910926,16.04929756686673,-0.028247327091453975,1.2560604013600905,-0.5006367267535894
2.0827411909386213,15.76281383201427,-0.027641776843079408,1.235102510400425,-0.48278741287119037
2.0764521309473563,15.481104931989634,-0.02704570134183417,1.2145400985094528,-0.46573969867044523
2.07029904585778,15.204081510672925,-0.02645938639360886,1.1943592172880315,-0.44944812917226673
2.06427966572662,14.931657348300583,-0.025883049529523854,1.1745465424714623,-0.4338703125529703
2.0583916774360214,14.663749221959087,-0.025316848649596588,1.1550893387589394,-0.4189666808966503
2.05263273753214,14.400276773897382,-0.024760889645024486,1.1359754269950104,-0.4047002721216064
2.047000483413933,14.141162387138095,-0.024215233121991638,1.1171931535205226,-0.39103653099105623
2.041492543066442,13.886331067907673,-0.023679900334453063,1.0987313615266217,-0.37794312734545915
2.0361065435096863,13.635710334442226,-0.023154878419943185,1.0805793642598625,-0.3653897898939735
2.030840118114,13.38923011175929,-0.022640125020808637,1.0627269199395795,-0.35334815407931097
2.025690912914846,13.146822632016281,-0.0221355723631358,1.0451642082604853,-0.3417916226865102
2.020656592044551,12.908422340104448,-0.0216411308568224,1.0278818083641634,-0.3306952380044964
2.015734842384673,12.673965804152694,-0.021156692272551805,1.010870678172812,-0.3200355644719395
2.010923377530687,12.443391630639272,-0.020682132544715688,0.9941221349873771,-0.3097905808478008
2.0062237375548317,12.216739818875691,-0.02018430202794019,0.9767631846959264,-0.31730551373656135
2.001635776702609,11.994065749299338,-0.01971100973051505,0.9595330724897585,-0.32720118583228214
1.9971537861938253,11.775340233505908,-0.0192628207806504,0.9424279344096497,-0.3393483739577502
1.9927719451614223,11.560534953557063,-0.01884014471850718,0.9254440651455178,-0.35362205989806883
1.9884843549052724,11.349622426361236,-0.018443248813230017,0.9085779104703691,-0.3699011300584
1.9842850702050958,11.142575969730377,-0.01807227031873985,0.891826060232743,-0.38806808740548226
1.9801681279273615,10.93936966998777,-0.017727227748515824,0.8751852418768783,-0.40800877447441547
1.9761275731433414,10.739978351008666,-0.01740803124296397,0.8586523144631558,-0.4296121062759873
1.972157482959263,10.54437754458148,-0.017114492096847126,0.8422242631645449,-0.4527698119853834
1.9682519882446385,10.352543461982506,-0.016846331508583258,0.8258981942178171,-0.47737618433077705
1.9644052934312362,10.164452966661667,-0.016603188607959046,0.8096713303112276,-0.5033278356302437
1.9606116945427214,9.980083547940655,-0.01638462781390839,0.7935410063932351,-0.5305234594478319
1.9568655956036376,9.799413295628124,-0.016190145569429718,0.777504665889656,-0.5588635968544837
1.9531615235660644,9.622420875459074,-0.016019176496423274,0.761559857319475,-0.5882504062868185
1.9494941418829197,9.449085505267561,-0.015871099009184046,0.7457042313023805,-0.6185874359964356
1.9458582628483962,9.279386931803078,-0.015745240421452505,0.7299355379540087,-0.6497793980741812
1.9422488588184281,9.11330540810156,-0.015640881578271155,0.7142516246678864,-0.6817319430174399
1.9386610724172824,8.950821671321837,-0.015557261040387207,0.6986504342862232,-0.7143514337836
1.9350902258304,8.79191692095744,-0.01549357884554861,0.6831300036650388,-0.7475447182388902
1.9315318292783727,8.63657279733205,-0.015448999867729964,0.6676884626426957,-0.7812188988682391
1.9279815887624965,8.484771360284292,-0.015422656792063985,0.6523240334247796,-0.8152810985579502
1.924435413168608,8.336495067944153,-0.015413652720009616,0.6370350304025105,-0.8496382211980222
1.9208894208129639,8.191726755498813,-0.015421063416024653,0.6218198604265351,-0.8841967057739497
1.9173399455116966,8.050449613839998,-0.015443939203691989,0.6066770235631487,-0.9188622725277639
1.913783542253951,7.912647167978168,-0.015481306515834905,0.5916051143657992,-0.9535396596637687
1.9102169925581753,7.778303255100454,-0.015532169099605808,0.5766028237012735,-0.9881323489546097
1.906637309591234,7.647402002139412,-0.015595508873798139,0.5616689411773609,-1.0225422784666234
1.903041743131106,7.519927802707887,-0.015670286431662017,0.5468023582272094,-1.056669540468426
1.8994277844559666,7.395865293241513,-0.01575544117824442,0.5320020719151812,-1.090412062411957
1.8957931712455025,7.275199328174168,-0.015849891086661468,0.5172671895400033,-1.1236652686793163
1.892135892584479,7.157914953952854,-0.01595253205267373,0.5025969341236023,-1.1563217205705258
1.888454194163961,7.043997381676462,-0.01606223682139594,0.48799065088849647,-1.1882707317659533
1.8847465837823087,6.9334319581173105,-0.01617785345384078,0.47344781484326787,-1.2193979562323591
1.8810118372562874,6.826204134854631,-0.016298203294169707,0.45896803961481264,-1.249584945254169
1.8772490048625061,6.722299435214794,-0.016422078390885518,0.44455108768812496,-1.2787086699640497
1.8734574184411437,6.621703418673093,-0.016548238316615064,0.430196882239722,-1.3066410054240027
1.8696366993077675,6.524401642325838,-0.016675406321438376,0.41590552077988785,-1.3332481719784728
1.8657867671352726,6.430379618988155,-0.01680226474373492,0.40167729085212545,-1.3583901292782588
1.8619078499868915,6.3396227714114275,-0.016927449590013556,0.38751268807594286,-1.3819199180800936
1.8580004957032372,6.2521163820436065,-0.017049544180894292,0.3734124368616323,-1.4036829446949977
1.8540655848718777,6.167845537674612,-0.01716707174397027,0.35937751417309416,-1.423516202839174
1.8501043456375674,6.086795068216539,-0.01727848681524907,0.34540917676667937,-1.4412474277092078
1.8461183706456183,6.008949478763579,-0.017382165288654737,0.3315089923894762,-1.456694177469421
1.8421096364508367,5.934292873958892,-0.0174763929268382,0.3176788754773734,-1.4696628381665406
1.8380805257710127,5.862808873565005,-0.01755935211511226,0.30392112794773174,-1.4799475496148677
1.8340338530185498,5.794480517992415,-0.01762910660195607,0.29023848572694594,-1.487329052375228
1.8299728936083426,5.729290162390786,-0.01768358392158284,0.27663417167852883,-1.491573460098386
1.8259014176171304,5.667219357755517,-0.017720555132437123,0.2631119555846719,-1.4924309679745207
1.8218237284631744,5.608248717361459,-0.017737611423702348,0.24967622175495457,-1.4896345179356087
1.8177447073910524,5.552357766725468,-0.017732137029532687,0.2363320446449544,-1.4828984562307481
1.813669864693614,5.4995247752544145,-0.01770127773080144,0.22308527249464521,-1.4719172414396218
1.8096053987958665,5.449726567809254,-0.017641903988742824,0.20994261833283248,-1.4563642944438484
1.805558264586439,5.402938314695156,-0.01755056739758201,0.19691175657236595,-1.4358911315355594
1.8015362527482583,5.359133299206761,-0.017423448586597726,0.18400142158760768,-1.4101269953044215
1.7975480823719785,5.3182826630240605,-0.01725629381583597,0.17122150174023126,-1.3786793062175275
1.7936035099346062,5.280355131783367,-0.017044336074358013,0.15858311774407327,-1.3411354165814875
1.7897134589605566,5.245316726509685,-0.016782194134770133,0.14609866724445214,-1.297066379553014
1.7858901766365216,5.213130471973848,-0.016463739117709094,0.13378180698022354,-1.2460337774135912
1.7821474268009974,5.183756121374994,-0.016081911625977878,0.12164732866199197,-1.187601118435073
1.778500733871078,5.157149929252029,-0.015628461677669032,0.1097108637116303,-1.121351938076269
1.7749677007279452,5.133264522475958,-0.015093565653920537,0.09798832564550432,-1.0469175209785937
1.7715684375333451,5.1120489432513345,-0.014465244733906807,0.08649497195990495,-0.9640179794434031
1.7683261614065948,5.093448966538659,-0.013728460716097013,0.07524395597640257,-0.8725208916668015
1.7652680644792016,5.077407818913617,-0.012863686478626051,0.06424428424134337,-0.7725208325152538
1.7624266093485983,5.063867423396946,-0.011844619004881169,0.053498285468829496,-0.6644388476010106
1.7598415142307302,5.052770213069383,-0.010634468976579168,0.04299919564039742,-0.5491297514392531
1.7575628822117197,5.044061295870804,-0.009179722493076577,0.03273051912986109,-0.4279634716006357
1.7556563805884036,5.037690140574451,-0.007398552492282313,0.022670831273212635,-0.3028164823034436
1.7542128650151187,5.033609571283652,-0.005153756840628949,0.012812379951125786,-0.1758878465746775
1.7533723140894089,5.031765110856824,-0.0021553816438057223,0.0032264063691088626,-0.04927781425838898
