x,y,v_x,v_y,omega
2.375,32.48,0.0,3.230769230769231,-5.3061224489795915
2.3732774381659176,31.747116581954202,-0.014978798557237858,3.1421300565854997,-4.901623324909654
2.3684094324290985,31.034114711328403,-0.027351686110752914,3.0578862097258166,-4.5437020162901804
2.360945060283687,30.340023513525818,-0.03755589776239095,2.9776894233401294,-4.225467271674231
2.351341980711495,29.663947753781162,-0.04594914199580388,2.901230226613395,-3.9412286977089175
2.339982894608866,29.005059584288283,-0.05282551976618609,2.828232116802937,-3.686258922283974
2.3271887473986825,28.362591501944973,-0.05842793423540752,2.7584468600954204,-3.456608333997316
2.313229383119971,27.735830287756933,-0.06295784210121605,2.6916506545831993,-3.2489595644843523
2.2983321896320255,27.124111751905293,-0.06658297083744041,2.627640961517998,-3.0605123136429664
2.282689149433556,26.526816147228722,-0.06944346567098864,2.5662338617565563,-2.888891550499206
2.266462617189841,25.943364142651586,-0.07165681470913918,2.5072618302185212,-2.7320738703136285
2.2497900746002033,25.373213269777064,-0.07332181650510466,2.4505718469512363,-2.5883280601208227
2.2327880595885246,24.81585477242942,-0.07452179229210351,2.396023782158702,-2.4561668604677775
2.2155554256073406,24.2708108017458,-0.07532719884862303,2.3434890063945413,-2.3343076065107424
2.1981760549793825,23.73763190945217,-0.07579776313362327,2.292849187463132,-2.221639953316395
2.1807211253785774,23.21589479990311,-0.07598423339511805,2.2439952433982313,-2.1171992849164947
2.1632510090963906,22.705200307821443,-0.0759298212325922,2.1968264268771702,-2.0201447076330195
2.1458168694005435,22.205171573808343,-0.07567139351390269,2.151249521062826,-1.9297407593449254
2.128462006135255,21.71545239387987,-0.0752404609668697,2.10717813048911,-1.84534214509599
2.1112229930271513,21.235705722724916,-0.07466400084272558,2.0645320534670217,-1.766380948502871
2.094130641409611,20.765612313227802,-0.07396514365762613,2.0232367247687306,-1.6923558772539946
2.0772108188469813,20.304869477173654,-0.07316374819132522,1.9832227191803786,-1.6228231866350817
2.060485146109826,19.853189954047906,-0.07227688430568088,1.9444253080000446,-1.5573889927676698
2.043971591875432,19.41030087652429,-0.0713192394716552,1.9067840617705336,-1.495702741106775
2.0276849812111517,18.975942822664223,-0.07030346195686983,1.8702424935343627,-1.4374516387619476
2.011637431190181,18.549868946069495,-0.06924045126896503,1.8347477377241581,-1.3823558937184435
1.9958387247708687,18.13184417627493,-0.06813960455114024,1.80025026048945,-1.330164631842037
1.9802966322470617,17.721644482567402,-0.06700902609066035,1.7667035978368715,-1.2806523850465397
1.9650171880733247,17.3190561951949,-0.06585570585487828,1.7340641184457528,-1.233616062273082
1.9500049296252482,16.923875378604023,-0.06468567195448312,1.7022908084314299,-1.188872329824183
1.9352631034234573,16.535907251931512,-0.06350412110456777,1.6713450756773458,-1.1462553397812807
1.9207938434918528,16.15496565248833,-0.0623155304746019,1.6411905716547075,-1.1056147552389428
1.9065983258048946,15.780872538424127,-0.061123753759816275,1.6117930289035618,-1.0668140293303685
1.8926769021802268,15.41345752715483,-0.05993210384599175,1.583120112568582,-1.0297289018297755
1.8790292164711624,15.052557466483634,-0.05874342405891621,1.5551412845722459,-0.9942460827637425
1.86565430549186,14.698016035653037,-0.057560149674147264,1.5278276791720893,-0.9602620971588294
1.8525506867527897,14.349683373837262,-0.056384361100377915,1.501151988791184,-0.9276822689685307
1.8397164347841701,14.007415733825741,-0.05521782993109665,1.4750883591350772,-0.8964198254975474
1.8271706355716353,13.671077789693065,-0.05387607626485793,1.449589415931681,-0.8610820730448225
1.8149301316604192,13.340539513008,-0.052563088180499935,1.4246564682862888,-0.8275341152084335
1.8029882792410206,13.01567327573916,-0.05127910677079367,1.4002673340514442,-0.7956623221377166
1.7913383967145546,12.696356422513489,-0.05002421954629993,1.3764009548674372,-0.7653616461949876
1.7799737973059613,12.382471020344141,-0.04879838400668709,1.353037324866031,-0.7365348717933099
1.7688878166234132,12.07390362413674,-0.047601448015468985,1.3301574247635537,-0.709091939476165
1.7580738358492307,11.770545056788894,-0.04643316741220406,1.3077431608698993,-0.6829493360529256
1.747525301154789,11.472290202801307,-0.04529322123511607,1.2857773085873692,-0.6580295435970224
1.7372357398521228,11.179037814411995,-0.044181224875026195,1.2642434600153452,-0.634260540975503
1.7271987737262364,10.890690329349098,-0.04309674143702804,1.2431259753141795,-0.6115753523280261
1.7174081299329211,10.607153699373743,-0.0420392915483214,1.2224099375149975,-0.5899116375660721
1.7078576497957867,10.32833722885296,-0.04100836181806679,1.2020811104918208,-0.5692113205327388
1.6985412957920802,10.054153422664918,-0.040003412127206456,1.1821258998389743,-0.5494202509613677
1.6894531569786952,9.784517842795076,-0.03902388190222661,1.1625313164205058,-0.5304878968071753
1.6805874530767235,9.519348973033058,-0.0380691955062243,1.1432849423796438,-0.5123670639083665
1.6719385374042743,9.258568091226621,-0.03713876686289835,1.1243748994154446,-0.49501364026901656
1.6635008988224556,9.002099148591483,-0.036232003413788946,1.105789819150962,-0.4783863625514369
1.6552691628378422,8.749868655614357,-0.03534830949589138,1.0875188154327484,-0.46244660262603166
1.6472380919860476,8.501805574121814,-0.034487089215365946,1.0695514584154333,-0.44715817225632754
1.6394025856047123,8.2578412151198,-0.033647748883203224,1.0518777502977175,-0.43248714419981243
1.631757679090075,8.017909142038,-0.03282969907016424,1.0344881025874848,-0.41840168818480705
1.6242985427189511,7.781945079040277,-0.032032356330913975,1.017373314784028,-0.40487192038272996
1.6170204801071986,7.549886824087025,-0.03125514464084578,1.0005245543746957,-0.39186976513631583
1.6099189263663969,7.321674166457985,-0.030497496583518562,0.9839333380517274,-0.3793688278297985
1.6029959288236437,7.097359242360508,-0.029702482049115887,0.966631219317645,-0.38670844038686697
1.5962516761348917,6.877009138644041,-0.028943193505250684,0.9494566390864252,-0.3964161815166313
1.5896779533945666,6.660594961395269,-0.028219612932359212,0.9324057717724609,-0.40836131368798034
1.5832665642373747,6.44808867832155,-0.027531597130179185,0.9154749506077141,-0.42241736500516813
1.5770093583040394,6.2394630830941225,-0.026878889246649284,0.8986606600655622,-0.43846181825255637
1.5708982561646647,6.034691761368055,-0.026261129356608157,0.8819595288567482,-0.4563758128719815
1.5649252719099276,5.833749058350946,-0.025677864162846738,0.8653683234659257,-0.4760438585678079
1.559082533604308,5.636610047799273,-0.02512855588602002,0.848883942200799,-0.49735355929478264
1.5533623017809175,5.443250502327324,-0.024612590404329907,0.8325034097292056,-0.5201953464347543
1.547756986144069,5.253646864918956,-0.02412928469870199,0.8162238720826924,-0.5444622200105349
1.5422591606334675,5.067776221536999,-0.023677893654353365,0.80004259210824,-0.570049496818944
1.5368615769927252,4.885616274728978,-0.0232576162651454,0.7839569453528179,-0.5968545643905678
1.5315571769747,4.707145318131033,-0.022867601282897856,0.7679644163684507,-0.6247766397010857
1.5263391033069316,4.532342211774388,-0.02250695234987363,0.7520625954284664,-0.6537165315681662
1.5212007095320732,4.361186358100522,-0.022174732648893313,0.7362491756486226,-0.6835764056688302
1.5161355688307236,4.193657678592292,-0.021869969101973696,0.7205219505099059,-0.7142595511046387
1.5111374819273247,4.029736590928607,-0.021591656144973284,0.7048788117830121,-0.7456701474258232
1.506200484173872,3.8694039865699033,-0.02133875910244002,0.6893177478578827,-0.7777130310001537
1.5013188519009704,3.7126412086804415,-0.02111021718366148,0.6738368424852494,-0.810293459577482
1.496487108121304,3.5594300302914235,-0.020904946117784873,0.6584342739409832,-0.8433168738559205
1.49170002766684,3.4097526326059686,-0.02072184044277202,0.6431083146282014,-0.8766886547998404
1.4869526418380383,3.263591583343011,-0.020559775459850306,0.6278573311366528,-0.9103138753925215
1.4822402426410277,3.1209298150121434,-0.020417608861980633,0.6126797847839284,-0.9440970454264399
1.47755838668711,2.9817506030050964,-0.020294182041651065,0.5975742326686485,-0.9779418478408558
1.4729028988281223,2.846037543381918,-0.020188321079981895,0.5825393292720451,-1.011750865008452
1.4682698756011243,2.7137745302207215,-0.020098837415651702,0.5675738286514179,-1.0454252932490835
1.4636556885566494,2.5849457323889595,-0.020024528188479378,0.552676587276934,-1.0788646437080225
1.4590569875463884,2.459535569581295,-0.019964176248573055,0.5378465675723173,-1.1119664275771486
1.4544707040487639,2.3375286874539896,-0.0199165498177278,0.523082842230322,-1.1446258234592124
1.449894054614432,2.2189099316681435,-0.019880401785157185,0.5083845993857161,-1.1767353244765821
1.4453245445184588,2.1036643206334524,-0.019854468614609135,0.4937511487420469,-1.2081843625061421
1.440759971711827,1.9917770167202562,-0.019837468834364932,0.4791819287639976,-1.2388589066812183
1.4361984311721967,1.8832332956799256,-0.019828101075461093,0.4646765150649754,-1.2686410330404698
1.4316383197626092,1.7780185139813511,-0.01982504161660443,0.45023463014002,-1.2974084619250075
1.4270783417172463,1.67611807373423,-0.0198269413865511,0.43585615461756305,-1.3250340594332064
1.422517514885697,1.57751738482672,-0.019832422366051806,0.42154114023036493,-1.3513852989457167
1.41795517788161,1.482201823855533,-0.01984007332166234,0.4072898247364839,-1.3763236784438508
1.4133909982984716,1.3901566893694302,-0.019848444792583114,0.3931026490557242,-1.399704089082808
1.408824982174842,1.301367152881543,-0.01985604323897901,0.3789802769258912,-1.4213741302773768
1.4042574849141114,1.2158182050310309,-0.019861324245634675,0.36492361742639257,-1.4411733664572122
1.3996892238902023,1.1334945961891414,-0.019862684657921674,0.35093385076394784,-1.4589325207186654
1.3951212930011951,1.0543807707082529,-0.01985845350735959,0.3370124577655054,-1.4744726009392113
1.3905551794683562,0.9784607939040875,-0.01984688156080638,0.32316125357504993,-1.4876039546733668
1.3859927832194252,0.90571827074141,-0.019826129299462137,0.30938242610041355,-1.4981252505267748
1.381436439243502,0.8361362550631313,-0.019794253099869763,0.29567857979765105,-1.5058223860158746
1.3768889433621565,0.7696971480648962,-0.01974918934661423,0.2820527854043777,-1.5104673256135863
1.3723535819298314,0.7063825845776108,-0.019688736151863524,0.26850863622419835,-1.511816878412388
1.367834166059637,0.6461733055896275,-0.019610532284610665,0.25505031149740365,-1.5096114335629016
1.3633350710733587,0.5890490153359771,-0.019512032813459965,0.24168264722999677,-1.5035736847692347
1.358861282004762,0.5349882212331032,-0.01939048082651141,0.22841121453411878,-1.493407394691362
1.354418446155251,0.48396805499057294,-0.019242874386627633,0.2152424049661468,-1.478796279118499
1.3500129339301068,0.4359640734591821,-0.01906592757114936,0.20218352139378712,-1.459403133616317
1.3456519095031643,0.3909500382915567,-0.018856023967481452,0.18924287136814857,-1.4348693883882113
1.3413434133189956,0.34889767447121756,-0.018609160242681076,0.17642985750434523,-1.40481536952343
1.3370964591283956,0.30977640947328666,-0.018320876197319567,0.16375505552116817,-1.3688416797066494
1.3329211493041728,0.2735530976479126,-0.01798616575244402,0.15123026469948803,-1.326532306928318
1.3288288138306505,0.240191738936133,-0.017599360104271277,0.13886850670726777,-1.2774603495996795
1.3248321809853956,0.2096532080318383,-0.017153968984902193,0.12668393593876118,-1.2211976391855663
1.3209455919713964,0.1818950206243244,-0.016642457223786718,0.11469160673529671,-1.1573300734771137
1.3171852786593516,0.15687117854960064,-0.016055919402690008,0.10290702000140071,-1.0854811490148042
1.3135697348668658,0.13453215637638039,-0.015383591836316931,0.09134534672222636,-1.005346929666615
1.3101202299613408,0.11482511741179025,-0.014612102994335917,0.08002020949160614,-0.9167462477053805
1.3068615433255577,0.09769447207763449,-0.013724302534213476,0.06894192384889146,-0.8196896141716753
1.3038230462236942,0.08308290025720311,-0.012697411395035265,0.05811522241570729,-0.7144676121725576
1.3010403359894211,0.07093291451590034,-0.011500068902991456,0.04753682750867467,-0.6017517615622562
1.2985577645010964,0.061188869995135065,-0.010087509256354788,0.037193994411026235,-0.4826845604027996
1.2964324910805651,0.05379890289367495,-0.008393129183046705,0.027066589079912003,-0.3589099332997388
1.2947415125387656,0.04871535963540197,-0.0063110320499922806,0.017138134905062215,-0.2324705269152894
1.2935964967331868,0.0458898558527423,-0.003645627128953049,0.007431463204995043,-0.10549909844466068
