x,y,v_x,v_y,omega
2.375,32.48,0.0,3.6923076923076925,-5.183673469387755
2.3738240320557944,31.823645903884927,-0.013066310491173917,3.600515597859756,-4.828447375453383
2.3704815612343197,31.18345026856332,-0.02407225419187637,3.5127692390469747,-4.509865768973421
2.3653153292242344,30.558710416344006,-0.03333032369796031,3.428784674500963,-4.223051137055483
2.3586164521459,29.94877229282613,-0.041101643839092046,3.3483055868087606,-3.9638918657585474
2.3506328311510067,29.353025816938057,-0.047605256104166285,3.271099700836524,-3.7289055240947993
2.3415760577998177,28.77090082187352,-0.05302555890904282,3.196955799880522,-3.515129366985918
2.3316271100175445,28.20186349037552,-0.05751830533843761,3.1256812167639447,-3.3200320814441433
2.320941070753165,27.645413207271638,-0.061215464265779396,3.0570997066125356,-3.141442236093739
2.3096510527733436,27.101079767009637,-0.06422917995445619,2.991049629631903,-2.97748995454563
2.297871475470644,26.568420885409488,-0.0666550122977634,2.9273823881475076,-2.8265591243811934
2.285700810375788,26.047019973809324,-0.06857459986730187,2.865961074076554,-2.687248049471794
2.273223889215459,25.536484140862292,-0.07005785746968876,2.8066592920015467,-2.558336906112523
2.2605138503575515,25.036442392891725,-0.07116479650705886,2.749360129893673,-2.4387607101135647
2.2476337852223716,24.546544008265094,-0.07194703832827648,2.693955254846651,-2.327586769359501
2.234638134874028,24.06645706494953,-0.0724490766533171,2.6403441153262537,-2.2239958039438137
2.221573877906204,23.595867103446693,-0.07270933410028294,2.5884332347053065,-2.1272660781843014
2.208481543415133,23.13447590981282,-0.07276104913384142,2.538135583448854,-2.036760016294657
2.1953960769363072,22.68200040555691,-0.07263302285310981,2.489370019394586,-1.951912874213594
2.1823475824206287,22.23817163295844,-0.07235024954331795,2.4420607872550937,-1.8722231200974988
2.1693619594147515,21.802733825820063,-0.0719344505219833,2.3961370698379945,-1.7972442398382775
2.156461451412451,21.375443556920345,-0.07140452728135661,2.3515325846033135,-1.7265777351699094
2.1436651187196754,20.95606895449658,-0.07077694708281979,2.3081852201051896,-1.6598671231628088
2.130989247015298,20.54438898099988,-0.07006607185470616,2.266036707635891,-1.5967927792530947
2.118447701004837,20.14019276814954,-0.06928443937263411,2.2250323240345327,-1.5370674930305308
2.1060522310855836,19.743279002991628,-0.06844300417462634,2.1851206221645176,-1.4804326280775015
2.0938127397126007,19.3534553602549,-0.06755134441407587,2.146253186021296,-1.4266547952039588
2.0817375131307907,18.970537976809144,-0.06661783982825399,2.108384407820458,-1.3755229632424966
2.0698334232822235,18.59435096447804,-0.06564982515582818,2.0714712847473744,-1.3268459437737856
2.0581061039806254,18.22472595785079,-0.0646537226397059,2.035473233333173,-1.2804501962389936
2.046560104842376,17.8615016940809,-0.06363515667417746,2.000351919665603,-1.2361779082567794
2.03519902595587,17.504523621964168,-0.06259905317588904,1.9660711038536567,-1.1938853129141247
2.024025635842732,17.15364353785612,-0.0615497258589768,1.9325964973468672,-1.1534412105971097
2.0130419749018937,16.80871924622675,-0.06049095126145,1.8998956318683418,-1.1147256677753037
2.00224944622017,16.46961424286135,-0.05942603409103582,1.8679377388583356,-1.077628869218273
1.9916488953717484,16.136197418904004,-0.05835786422475975,1.8366936384455226,-1.0420501035402883
1.9812406806065348,15.808342784107737,-0.05728896649983451,1.8061356370685464,-1.007896864850091
1.9710247346374599,15.485929207804894,-0.05622154426766554,1.7762374329630264,-0.9750840557169714
1.9610006190745195,15.168840176245258,-0.05515751754278079,1.7469740288107136,-0.9435332787265862
1.9511675724142692,14.856963565069545,-0.054098556460000495,1.7183216509194188,-0.9131722056509473
1.9415245523741294,14.550191425793862,-0.05304611065266667,1.690257674365951,-0.8839340147472224
1.932070273258248,14.248419785277765,-0.05200143507934828,1.662760553590675,-0.8557568879710866
1.9228032389532719,13.951548457236193,-0.050965612753717894,1.6358097579823532,-0.8285835609769325
1.9137217720761142,13.659480864934498,-0.049939574770258004,1.609385712036463,-0.8023609197080545
1.9048240397299019,13.372123874277328,-0.04892411796543264,1.583469739709877,-0.7770396381789375
1.8961080762672424,13.08938763656672,-0.04791992050856176,1.558044012630216,-0.7525738527390704
1.8875718034104791,12.811185440263511,-0.046927555677696645,1.5330915018498812,-0.72892086870003
1.879213048035676,12.537433571139339,-0.04594750404233951,1.5085959328631469,-0.7060408957190765
1.87102955788972,12.26805118025494,-0.044980164246058704,1.4845417436301638,-0.6838968087749987
1.8630239992399542,12.002961331134575,-0.04397048741800564,1.4609010243738947,-0.6609970370456867
1.8551982376619918,11.74208964268972,-0.04298241900379887,1.4376732916800277,-0.6390567088004412
1.8475484058479985,11.485363010108358,-0.042015712262792444,1.4148448481128988,-0.6180249219448669
1.8400706840523973,11.232710742450923,-0.04107008546610903,1.3924025703030327,-0.597853984511752
1.8327613058707346,10.984064462054107,-0.04014522766347667,1.3703338785504886,-0.5784991797789845
1.8256165630446017,10.739358009234042,-0.03924080373800138,1.348626708339114,-0.5599185508767888
1.8186328094131459,10.49852735195753,-0.03835645883373222,1.3272694836221068,-0.5420727030795249
1.8118064641173621,10.261510500173962,-0.037491822230529916,1.3062510917508783,-0.5249246221614434
1.8051340141507597,10.028247424522707,-0.03664651073171967,1.2855608599297217,-0.5084395073594459
1.7986120163389143,9.798679979151082,-0.03582013162211763,1.2651885330883432,-0.4925846176315324
1.7922370988206833,9.572751828396562,-0.035012285247118066,1.2451242530729842,-0.47732913002936683
1.7860059620952689,9.350408377104166,-0.03422256725748489,1.2253585390647652,-0.4626440091191411
1.7799153796917677,9.131596704365641,-0.033450570559194745,1.2058822691410689,-0.4485018864882917
1.773962198511167,8.916265500481735,-0.032695887003032824,1.1866866629023416,-0.4348769494680606
1.7681433388848835,8.704365006962185,-0.031958108844563585,1.1677632650926777,-0.4217448382846418
1.7624557943887367,8.495846959390523,-0.031236830001514088,1.14910393014802,-0.40908255092581436
1.7568966314466792,8.290664532992228,-0.030531647132455503,1.1307008076108083,-0.3968683550765009
1.7514629887545479,8.088772290755351,-0.029842160557893578,1.1125463283544925,-0.3850817065364526
1.7461520765505183,7.89012613396255,-0.029167975042435162,1.0946331915655128,-0.373703173586992
1.7409611757557903,7.694683255002577,-0.028508700454543408,1.0769543524342002,-0.3627143668221118
1.7358876370062168,7.502402092337636,-0.027863952318493975,1.0595030105095824,-0.3520978740027958
1.7309288795931204,7.313242287510906,-0.027233352271467035,1.0422725986763148,-0.34183719953273084
1.7260823903293379,7.127164644085692,-0.026616528437228053,1.0252567727149464,-0.3319167081890511
1.7213457223545987,6.944131088414494,-0.026013115726540713,1.008449401409466,-0.32232157277381573
1.7167164938926134,6.76410463214247,-0.025422756073296988,0.9918445571686026,-0.3130377253809149
1.7121975040776516,6.587270218238466,-0.024788241870721643,0.9729822639869972,-0.3528844182221822
1.7077884396558136,6.413821871553985,-0.02420136281636658,0.9542215880628044,-0.39386463043466624
1.7034808724051544,6.243741526813281,-0.023660495524290785,0.9355600201672456,-0.43587814976417916
1.699266666759939,6.077011561607101,-0.023164011644768237,0.9169951487903217,-0.4788260857222777
1.6951379805022297,5.91361477901431,-0.022710280107558132,0.8985246577962622,-0.5226106495360396
1.6910872650758173,5.75353439061421,-0.022297669074804127,0.880146324427066,-0.5671349346890195
1.6871072655733166,5.596753999826728,-0.02192454761964696,0.8618580176560628,-0.6123026970721476
1.6831910204445664,5.443257585517017,-0.02158928714424346,0.8436576968962846,-0.6580181337349682
1.6793318609722174,5.2930294857999165,-0.0212902625485239,0.8255434110714825,-0.7041856591907368
1.6755234105585703,5.146054381978001,-0.02102585315866513,0.8075132980609259,-0.7507096781829111
1.671759583866321,5.002317282544574,-0.02079444342188418,0.7895655845326923,-0.7974943537648103
1.6680345858548948,4.861803507180063,-0.020594423371740053,0.7716985861841056,-0.8444433694778667
1.6643429107535304,4.724498670666385,-0.020424188865642193,0.7539107084123222,-0.8914596843360527
1.6606793410121923,4.590388666639413,-0.02028214159367248,0.736200447442928,-0.938445279233693
1.6570389462718027,4.459459651094065,-0.020166688855100937,0.7185663919498397,-0.9853008932898263
1.6534170823961967,4.331698025550043,-0.020076243096077633,0.7010072252059362,-1.0319257485232762
1.6498093906096507,4.207090419778538,-0.020009221198874782,0.6835217278107828,-1.0782172611172534
1.64621179678588,4.085623673981097,-0.019964043509690006,0.6661087810496946,-1.1240707373791492
1.642620510937056,3.9672848203013586,-0.019939132588354804,0.6487673709473764,-1.1693790523286602
1.63903202695477,3.8520610635380272,-0.019932911659266483,0.631496593089657,-1.2140323086539344
1.6354431226589785,3.7399397609130816,-0.019943802738415194,0.6142956582986226,-1.2579174735595628
1.6318508602159416,3.6309084007328067,-0.01997022440644031,0.5971638992599809,-1.3009179907906654
1.628252586992069,3.524954579759875,-0.020010589192142828,0.5801007782170478,-1.3429133648530878
1.624645936917552,3.4220659790926113,-0.020063300524712408,0.5631058958636486,-1.3837787141605944
1.6210288324417883,3.322230338321887,-0.020126749205996122,0.5461790015888254,-1.4233842895266615
1.6173994871720796,3.2254354277063975,-0.020199309346322247,0.5293200052499377,-1.4615949540834876
1.6137564092980403,3.1316690180728877,-0.020279333698559523,0.5125289906779653,-1.4982696203590278
1.6100984059168126,3.040918848108369,-0.020365148315080354,0.49580623115002187,-1.5332606398828392
1.606424588388773,2.9531725886658933,-0.020455046440916752,0.4791522070997208,-1.56641314033737
1.6027343788701822,2.8684178036530312,-0.020547281543424337,0.46256762637651855,-1.597564304945099
1.5990275181885205,2.7866419070121715,-0.020640059363926523,0.4460534474108115,-1.6265425885173714
1.5953040752483894,2.7078321152328755,-0.020731528859752896,0.42961090569248594,-1.6531668644385504
1.5915644581813284,2.631975394758161,-0.020819771885369005,0.4132415440265485,-1.677245496894465
1.5878094274821954,2.5590584035577173,-0.020902791438330032,0.39694724708948037,-1.6985753329879927
1.5840401114085565,2.489067426041178,-0.020978498268769998,0.38073028087208566,-1.7169406101796665
1.580258023958665,2.4219883003737266,-0.02104469561891389,0.36459333765515767,-1.7321117759853653
1.5764650857891633,2.3578063371352442,-0.021099061819994065,0.3485395872168737,-1.7438442194040182
1.5726636484870746,2.296506228135293,-0.021139130425437275,0.3325727350048146,-1.7518769176433204
1.5688565226740216,2.2380719440645294,-0.02116226749737063,0.31669708800365326,-1.7559310081021864
1.5650470104968557,2.1824866195374,-0.02116564558225164,0.3009176289644358,-1.7557083053392961
1.5612389431523648,2.129732423976513,-0.021146213800981386,0.285240099489858,-1.7508897974947708
1.5574367242111715,2.0797904167311856,-0.021100663323389505,0.2696710921248846,-1.7411341786619932
1.553645379657711,2.0326403848517636,-0.021025387270616654,0.25421815097980294,-1.7260765064357644
1.5498706157659445,1.988260662121668,-0.0209164337490091,0.23888987935457648,-1.705327122276784
1.5461188862109962,1.946627928380913,-0.020769450194861126,0.22369605109827603,-1.6784710437001502
1.542397470219035,1.9077169890122683,-0.02057961638248485,0.20864771966445828,-1.6450681421385769
1.5387145641537578,1.87150053593912,-0.020341562120595794,0.19375731448162953,-1.6046545736705122
1.5350793898477784,1.8379488939527953,-0.02004926350139856,0.17903870758866058,-1.5567461525631723
1.5315023244112846,1.8070297601587093,-0.019695908015196856,0.16450722345675134,-1.5008446776241235
1.527995058522758,1.7787079505244776,-0.019273712968434924,0.15017955025693197,-1.4364486726313408
1.5245707938846609,1.7529451768764552,-0.01877367189931093,0.13607349027664112,-1.3630706180236056
1.521244496534473,1.729699891318738,-0.018185187547220212,0.12220746036467649,-1.2802635429202032
1.5180332325527637,1.708927253817535,-0.017495523360660972,0.10859962298200877,-1.1876607475051837
1.5149566288504372,1.6905793022152977,-0.016688962220743026,0.09526650593172592,-1.0850331612330433
1.5120375280354936,1.6746054280355338,-0.01574549127863071,0.08222098495454704,-0.972368665048954
1.5093029490770322,1.6609532728401,-0.014638719370940318,0.0694696283280396,-0.849974944697336
1.5067855354594806,1.6495701266805902,-0.013332543046298787,0.05700977344428769,-0.7185990074951495
1.5045257940579293,1.6404047679776639,-0.011775694748716026,0.044827545477128194,-0.5795382306012528
1.502575677544458,1.6334093201976394,-0.009892266512076904,0.032899652078686205,-0.43468809945952774
1.501004750865385,1.628539905742251,-0.007562474366512995,0.02120495298120446,-0.28644067865115064
1.4999128945885079,1.6257528670251915,-0.00456926204323079,0.009762143875012407,-0.13734387041001622
1.499471998382019,1.6249822973378407,-0.00032958469553310676,-0.0012002584600190047,0.010432699022228126
