x,y,v_x,v_y,omega
2.375,32.48,0.0,2.6153846153846154,-4.326530612244898
2.37388769097002,31.88549867947117,-0.009672252434605849,2.5541920848660693,-4.054377858183425
2.3707130854817056,31.304788717226447,-0.017933012681176308,2.4954597607401996,-3.807707321597625
2.36577821028144,30.737322827639403,-0.02497894558200059,2.439026235668885,-3.5834115637502
2.3593432831201344,30.1825891359508,-0.03097694277717851,2.384744996405931,-3.3788328892347264
2.351632987720261,29.640107966537485,-0.036069104178243556,2.332482563709834,-3.191688956107885
2.342841709054639,29.109429024384603,-0.040376797261945596,2.2821169332717623,-3.0200121888748184
2.3331379193334536,28.590128907402264,-0.04400398292227701,2.2335362578789972,-2.862100152386503
2.3226678665924605,28.081808899389376,-0.0470399539559251,2.1866377248417783,-2.7164746893038876
2.311558687861982,27.584093002842245,-0.04956160022214776,2.141326592959354,-2.5818481082789053
2.2999210454626406,27.096626178138514,-0.05163529020690702,2.0975153609861454,-2.4570950776825558
2.2878513664781797,26.61907276140641,-0.053318440092752044,2.055123045379961,-2.3412291612048612
2.2754337507582107,26.151115037987637,-0.0546608270374119,2.0140745495659096,-2.2333831489076736
2.2627416010520185,25.692451952093183,-0.05570569214686872,1.974300110385857,-2.1327925062370214
2.2498390194250137,25.242797936239672,-0.056490669827085754,1.9357348100794385,-2.038781395750931
2.2367820064714867,24.80188184649238,-0.05704857324706363,1.8983181442448767,-1.9507508305132328
2.223619493633975,24.36944599154652,-0.057408060122604916,1.8619936378930237,-1.8681686006806117
2.210394233878876,23.945245245339507,-0.05759419861738668,1.8267085030375176,-1.7905606806151066
2.197143571832223,23.529046234271835,-0.057628949614378935,1.7924133323335472,-1.7175038765645656
2.1839001110701357,23.120626591276853,-0.057531578751594134,1.7590618241445506,-1.6486195173794564
2.170692293444296,22.719774269961015,-0.057319009299187956,1.726610535123592,-1.583568025038443
2.157544902991896,22.32628691286941,-0.05700612506950681,1.6950186569773271,-1.5220442296116325
2.144479505042585,21.93997126864251,-0.056606031011457426,1.664247814560951,-1.463773316003638
2.131514829520327,21.56064265344,-0.05613027787774524,1.6342618828521498,-1.4085073084100217
2.118667106088213,21.188124452533074,-0.055589056314545936,1.605026820686348,-1.356022013694534
2.1059503576525023,20.822247658421226,-0.054991364865549765,1.5765105194166626,-1.3061143574870575
2.093376657790664,20.462850442224855,-0.05434515567217843,1.548682664899598,-1.2586000572190614
2.080956356866233,20.10977775544933,-0.053657461062002455,1.5215146114093299,-1.2133115849583647
2.0686982809155916,19.762880959517858,-0.05293450372618142,1.4949792662556254,-1.1700963801017632
2.0566330511191753,19.422020743552594,-0.05198053798178929,1.4690226117031966,-1.1234560380590664
2.0447878525901877,19.0870633156132,-0.05102118835722994,1.4436506747263382,-1.079210620316506
2.0331635560566457,18.757876857057845,-0.05005965106487613,1.4188402692332491,-1.0372060926611757
2.0217603464708973,18.434334744947382,-0.04909869315902419,1.3945694012925283,-0.9973002042764184
2.0105778157779746,18.116315286697592,-0.048140704170738124,1.370817192183916,-0.9593614447400295
1.9996150445341963,17.80370147174627,-0.04718774142733327,1.3475638073927847,-0.9232681055558337
1.9888706737353397,17.496380738929748,-0.04624156986707255,1.3247903910117431,-0.8889074345424055
1.978342968039942,17.194244758380542,-0.045303697049428236,1.3024790050683233,-0.8561748728384857
1.9680298714230582,16.8971892268628,-0.04437540396695419,1.2806125733467935,-0.8249733655279411
1.9579290561657006,16.60511367555663,-0.043457772183979906,1.2591748293155516,-0.7952127379658258
1.9480379659723803,16.31792128938719,-0.04255170775793669,1.2381502678100265,-0.7668091308248164
1.9383538539111815,16.03551873707119,-0.04165796233944365,1.2175241001551824,-0.7396844876979327
1.92887381578562,15.7578160111225,-0.040777151795874544,1.1972822124421223,-0.7137660898059421
1.9195948194733345,15.484726277121112,-0.039909772658780804,1.17741112670038,-0.6889861329805381
1.9105137307019928,15.216165731606424,-0.03905621665723418,1.1578979647316892,-0.6652813426395319
1.9016273356763203,14.952053468007126,-0.038216783566005864,1.1387304143926544,-0.6425926229483392
1.8929323609208197,14.69231135006666,-0.03739169256878055,1.1198966981331389,-0.620864736781918
1.8844254906595657,14.436863892265674,-0.036581092311689045,1.1013855436145708,-0.600046013470676
1.8761033820166297,14.185638146781475,-0.035785069800798375,1.083186156248011,-0.5800880816392905
1.8679626782875252,13.938563596559778,-0.03500365827837119,1.065288193505879,-0.5609456247345193
1.860000020502937,13.695572054106101,-0.03423684419630901,1.0476817408739192,-0.5425761570918064
1.8522120574804084,13.456597565633636,-0.033484573390895715,1.0303572893214203,-0.5249398186150046
1.8445954545371508,13.221576320231197,-0.032746756550474626,1.0133057141780457,-0.5079991863424819
1.837146901017316,12.9904465637395,-0.03202327405678278,0.9965182553149722,-0.49171910134941044
1.829869196434493,12.76325224842352,-0.03126111361993866,0.9790844865631289,-0.49428301279227094
1.8227632973710248,12.540052481552813,-0.03052931301891624,0.9617830514430112,-0.49939159202565025
1.8158221764248177,12.320817289917315,-0.029828260426364446,0.9446099193004409,-0.5069075325263139
1.809038734482987,12.105517607842025,-0.029158191241726045,0.9275612291803321,-0.516698159136343
1.8024058343208358,11.89412523910837,-0.028519201472634374,0.9106332815471178,-0.5286350997038861
1.7959163312470139,11.686612820708998,-0.02791126003885948,0.8938225306213362,-0.542593971039284
1.7895631010332493,11.482953788298389,-0.0273342200808324,0.877125577296998,-0.5584540778062723
1.7833390653489332,11.2831223432093,-0.02678782934800303,0.8605391626081192,-0.576098123036938
1.7772372149042686,11.087093420911984,-0.026271739736039055,0.8440601617163738,-0.5954119290185009
1.771250630490473,10.894842660799153,-0.025785516036096287,0.8276855783952088,-0.6162841673502856
1.765372502091608,10.706346377184968,-0.025328643954034877,0.811412539989025,-0.6386060970107982
1.759596146229859,10.521581531410874,-0.024900537452476466,0.7952382928291798,-0.6622713093079134
1.75391502169447,10.340525704954977,-0.0245005454639521,0.7791601980916626,-0.687175478609973
1.7483227437939255,10.163157073444737,-0.024127958019041468,0.7631757280843448,-0.7132161177722007
1.7428130972613647,9.989454381475237,-0.023782011829313887,0.7472824629547711,-0.7402923371812464
1.7373800479344765,9.819396918136995,-0.02346189536101648,0.7314780878125562,-0.7683046063407927
1.7320177533233048,9.652964493158233,-0.023166753431781633,0.7157603902636288,-0.7971545169128194
1.726720572172352,9.490137413566877,-0.022895691359112805,0.7001272583568683,-0.8267445461120512
1.7214830731171613,9.330896460776916,-0.022647778686023128,0.6845766789471421,-0.8569778193249477
1.7163000425300883,9.175222868002514,-0.022422052505914423,0.6691067364824416,-0.887757870788876
1.7111664916452685,9.023098297900955,-0.022217520405563705,0.6537156122267685,-0.9189884011212803
1.7060776630488101,8.874504820342384,-0.022033163041898136,0.6384015839347275,-0.950573030432062
1.7010290366170107,8.729424890200065,-0.021867936365054897,0.6231630259984791,-0.9824150456842728
1.6960163349828736,8.587841325049556,-0.02172077349700514,0.6079984100929133,-1.014417140887728
1.6910355286094687,8.449737282658543,-0.021590586271734546,0.5929063063506789,-1.046481148616349
1.6860828405476678,8.31509623814112,-0.02147626643957843,0.5778853851051775,-1.0785077612319176
1.6811547509556184,8.183901960640629,-0.021376686534764374,0.5629344192469175,-1.1103962400734166
1.6762480014579508,8.056138489393845,-0.02129070040147457,0.5480522872468521,-1.1420441107311639
1.6713595994242598,7.931790109015843,-0.021217143369752795,0.5332379769096804,-1.173346842367513
1.6664868222488847,7.810841323829198,-0.02115483206829151,0.5184905899307248,-1.2041975088701173
1.6616272217175359,7.6932768310428195,-0.021102563856480842,0.5038093473421443,-1.23448642942904
1.656778628550944,7.579081492564438,-0.021059115853013,0.4891935959481224,-1.264100785915266
1.6519391572215831,7.468240305205981,-0.02102324353273432,0.47464281586454515,-1.292924214206077
1.647107211146737,7.36073836901242,-0.02099367885723226,0.46015662929685347,-1.3208363663542095
1.642281488369916,7.256560853411571,-0.020969127897732812,0.44573481071052223,-1.3477124402363876
1.637460987853045,7.155692960844043,-0.020948267901144655,0.43137729857232177,-1.3734226730491363
1.632645016514155,7.058119887488466,-0.020929743741378307,0.4170842088674789,-1.3978317947560177
1.627833197159751,6.963826780646443,-0.020912163688222175,0.40285585062838136,-1.4207984373466869
1.6230254774778958,6.872798692293529,-0.020894094414866175,0.38869274374478685,-1.4421744955687774
1.6182221402776638,6.785020528236053,-0.020874055152369578,0.3745956393636872,-1.461804434674954
1.6134238151834075,6.70047699223791,-0.020850510884641866,0.3605655432288594,-1.4795245407431505
1.608631492018727,6.6191525243957585,-0.02082186446040604,0.34660374235507185,-1.495162109356609
1.6038465361457477,6.541031232944892,-0.0207864474785459,0.33271183547854827,-1.5085345689863492
1.599070706061088,6.4660968185711845,-0.020742509779361866,0.31889176777108735,-1.5194485364685832
1.5943061735917454,6.39433249018774,-0.020688207345356216,0.3051458703458222,-1.5276988037548433
1.5895555470833955,6.325720871010233,-0.0206215883794264,0.2914769051107452,-1.533067257983635
1.5848218980322155,6.2602438936365274,-0.020540577283007618,0.2778881155301677,-1.5353217413877427
1.5801087916819574,6.197882682711743,-0.02044295619749844,0.2643832838157846,-1.5342148643494027
1.5754203221946086,6.138617423652622,-0.020326343692492567,0.2509667949591764,-1.5294827951201089
1.5707611531115555,6.082427215836255,-0.020188170073184266,0.23764370779183838,-1.5208440648949506
1.566136563961897,6.02928990866258,-0.020025648619498744,0.2244198328488237,-1.5079984493465362
1.561552504059875,5.979181919031888,-0.019835741832868112,0.21130181611372995,-1.490626020686193
1.5570156547872862,5.932078029122231,-0.01961512140703394,0.19829722657894278,-1.4683865126224909
1.5525335020161712,5.887951164036558,-0.019360120080922954,0.18541464373126781,-1.4409192111347142
1.5481144208522215,5.846772150111608,-0.019066672649074412,0.1726637382248246,-1.4078436866102715
1.543767775668674,5.808509456732555,-0.0187302419904663,0.1600553346365023,-1.3687618313474694
1.5395040396159367,5.773128927806379,-0.018345723685512107,0.14760143863460515,-1.3232618791998263
1.535334939700841,5.740593514218624,-0.017907319054450102,0.13531520125893057,-1.2709253845113588
1.5312736365711057,5.710863026447587,-0.017408360334553553,0.12321077935877234,-1.2113385507219405
1.52733495303655,5.683893938033428,-0.016841061705059543,0.1113030329382559,-1.144109842137273
1.5235356732809762,5.659639286770968,-0.016196153560799384,0.09960697803965927,-1.0688964663899718
1.5198949475453025,5.638048741622583,-0.015462331097234341,0.08813689281584994,-0.9854429592974078
1.5164348577510869,5.619068927459068,-0.014625406243770176,0.07690496947558863,-0.8936353759149526
1.5131812327007963,5.602644119034871,-0.013666985497887004,0.0659194516043954,-0.7935736300585511
1.5101648546227802,5.5887174096721814,-0.012562389093556284,0.055182368940712406,-0.6856606041765927
1.5074232862526369,5.57723238503743,-0.011277335864212373,0.04468741049189883,-0.5706970157041316
1.5050037070549083,5.568135107205503,-0.009762483246472612,0.034419353264002854,-0.4499530204508356
1.5029675124078898,5.561375702338513,-0.007943557162381598,0.02435808036201032,-0.3251630540250663
1.5013985818199376,5.55690773477296,-0.0056993175154652,0.014493811512360115,-0.19837305739707017
1.500422424636284,5.5546801027802815,-0.0027890058206521645,0.004876901467443703,-0.07158509119490872
