x,y,v_x,v_y,omega
2.375,32.48,0.0,3.435897435897436,-6.530612244897959
2.3727449386982644,31.701165880954854,-0.0196092287107439,3.3365731644951073,-6.00315150602133
2.3663927237265026,30.944568737794285,-0.03562742321761895,3.2425324282055006,-5.5402602862213
2.356696126977763,30.209045390316426,-0.04869080938012032,3.1533227672541386,-5.131806963555346
2.3442756636348583,29.493530358375043,-0.0593132196886125,3.0685470757144104,-4.769532275681274
2.32964475454161,28.79704419180378,-0.0679120767744168,2.9878543727313494,-4.446655504011842
2.3132296138701736,28.118683695271752,-0.07482827689024989,2.9109325536341077,-4.157573323793134
2.2953850830248896,27.457613651600404,-0.08034155654700084,2.837502608725464,-3.8976271769778146
2.2764073197490475,26.81305974748622,-0.08468247193858178,2.7673139487891607,-3.662921937653803
2.2565440273123643,26.18430247684757,-0.08804181011953373,2.700140578503436,-3.4501833921083396
2.2360027452444795,25.57067184847061,-0.09057803394902801,2.6357779291223253,-3.2566453792084307
2.214957602337411,24.971542762381763,-0.09242320872113403,2.574040210780689,-3.0799597969048613
2.193554842393223,24.3863309474974,-0.09368774731528508,2.514758179518119,-2.9181243795729173
2.171917365051851,23.814489374354686,-0.09446422956620773,2.4577772391141584,-2.7694243888415313
2.1501484721170754,23.25550507300853,-0.09483049160575492,2.4029558160698286,-2.6323852725760495
2.128334969921661,22.70889629881062,-0.09485213618045865,2.350163959564124,-2.5057340253023583
2.106549747418623,22.17420999870346,-0.09458458123726034,2.2992821283242453,-2.3883674929220784
2.0848539256531144,21.651019538534253,-0.09407473846281607,2.2502001340166733,-2.2793262503827645
2.0632986554354757,21.13892265820754,-0.0933623938644782,2.202816216650388,-2.177772975333656
2.0419266251923442,20.63753962660715,-0.09248134738014185,2.1570362320486702,-2.082974466992185
2.0207733292122527,20.146511572393727,-0.09146035679456921,2.1127729350245366,-1.9942866344095072
1.9998681371385747,19.665498970222224,-0.09032392210697761,2.069945344727662,-1.9111419144972162
1.9792351980729863,19.19418026477578,-0.08909293933292245,2.0284781808935732,-1.8330386867782835
1.9588942066356234,18.73225061739487,-0.08778524707892792,1.9883013615491303,-1.7595323357330253
1.9388610534743411,18.279420762082687,-0.08641608475830925,1.9493495542090105,-1.690227677998731
1.9191483787846364,17.835415959360574,-0.08499847776086207,1.9115617738093382,-1.6247725244659077
1.8997660442065554,17.3999750378859,-0.08354356204853945,1.8748810216226264,-1.5628521894785727
1.880721535858324,16.972849514973348,-0.08206085837086266,1.8392539602256346,-1.504184793177502
1.8620203091328533,16.55380278821498,-0.08055850445931644,1.8046306202818898,-1.4485172302862832
1.8436660841311245,16.142609391302436,-0.0790434520774552,1.7709641354793932,-1.3956217006961664
1.8256610991630855,15.739054307940332,-0.0775216346011454,1.7382105024519399,-1.3452927151206133
1.8080063285540748,15.3429323384219,-0.07599810982503583,1.7063283629257262,-1.2973445036964002
1.7907016700065375,14.954047514031721,-0.07447718189267973,1.6752788056845054,-1.2516087673594272
1.773746105945603,14.57221255495961,-0.07296250559370548,1.6450251862469008,-1.2079327216366122
1.757137842592889,14.1972483678644,-0.07145717573424235,1.6155329624070822,-1.166177390580047
1.7408744299413557,13.82898357962624,-0.06996380384430799,1.5867695440117187,-1.1262161152520278
1.7249528653254207,13.467254104178068,-0.06848458412034533,1.5587041555375996,-1.0879332467102958
1.7093696828787706,13.11190273961822,-0.06702135019835219,1.531307710200218,-1.051222998050842
1.694121030834271,12.762778793081402,-0.0655756241016435,1.5045526944677718,-1.0159884339092908
1.679202738335313,12.419737731089832,-0.06414865849799035,1.4784130619806768,-0.9821405790370981
1.6646351507861712,12.082644194768744,-0.06252601584237417,1.4528350799418221,-0.9433747816835523
1.6504362196520743,11.751368108107439,-0.06094295054107594,1.4278265431999657,-0.9065749613214944
1.636596871540632,11.425781072442298,-0.059399206949725135,1.4033650712795243,-0.8716161249777937
1.6231081066934756,11.10575970573639,-0.0578944004168543,1.379429421815323,-0.8383827353990576
1.6099610260782153,10.791185389154489,-0.05642803971584148,1.3559994180272845,-0.8067678830803047
1.5971468536859204,10.481944029685138,-0.05499954630411568,1.3330558817061995,-0.7766725403908705
1.5846569547132314,10.177925837598224,-0.05360827084969982,1.3105805712234975,-0.7480048887273374
1.5724828502142363,9.879025117632914,-0.05225350740243334,1.2885561241270327,-0.7206797107257762
1.5606162287265675,9.585140072906537,-0.05093450553381747,1.2669660039284123,-0.6946178405221333
1.5490489553069295,9.296172620621274,-0.04965048072390383,1.2457944507260628,-0.6697456658810521
1.5377730783516803,9.012028218723373,-0.048400623234783675,1.2250264353426346,-0.6459946767374637
1.5267808345268241,8.732615702740077,-0.04718410567700943,1.2046476166860105,-0.6233010553269062
1.5160646520875818,8.45784713208307,-0.046000089446837235,1.1846443020705721,-0.6016053036324833
1.5056171528295987,8.187637645165072,-0.04484773018779788,1.1650034102598605,-0.5808519043595091
1.4954311528809465,7.9219053227286125,-0.04372618240917852,1.1457124370137044,-0.5609890120724774
1.485499662515649,7.660571058833643,-0.0426346033760169,1.1267594229425637,-0.5419681715009812
1.4758158851448868,7.403558438993954,-0.041572156369741264,1.1081329234895037,-0.523744060348367
1.4663732156207607,7.150793624991909,-0.04053801340526758,1.089821980876118,-0.5062742542251026
1.4571652379690838,6.902205245936905,-0.03953135747887998,1.0718160978630362,-0.48951901158306294
1.4481857226517123,6.65772429516597,-0.03855138441130835,1.0541052131885633,-0.4734410767515327
1.4394286234450986,6.417284032614809,-0.03759730434185405,1.036679678560668,-0.45800549937442747
1.430888074009754,6.180819892315203,-0.03666834292201084,1.0195302370880799,-0.44317946872425884
1.4225583842149014,5.948269394699807,-0.03576374225062038,1.0026480030458012,-0.4289321615245288
1.414434036273569,5.719572063418454,-0.03488276158705167,0.9860244428789976,-0.41523460205094836
1.4065173069269563,5.494779217296578,-0.0339583631661046,0.9686959581807894,-0.42136777595664143
1.3988086121784762,5.273957136031743,-0.033073765081548356,0.9514960528177876,-0.42991876974478643
1.3912988187128552,5.057076692097564,-0.032228786793415204,0.9344208509576971,-0.44075432442067286
1.3839788484089617,4.844109630757625,-0.031423128892614546,0.9174666389548003,-0.4537455988482324
1.3768397043841567,4.635028533661625,-0.030656384366560912,0.9006298575321667,-0.46876784875996114
1.3698724945555942,4.429806784171536,-0.02992804892528618,0.8839070945555538,-0.4857001194951769
1.3630684529262564,4.228418534285584,-0.029237530460259314,0.8672950783657494,-0.5044249510990702
1.356418958787584,4.03083867303495,-0.02858415770211149,0.85079067163978,-0.524828094481333
1.3499155540159835,3.837042796234563,-0.027967188137891483,0.8343908657548927,-0.5467982373898217
1.3435499586271455,3.6470071774750075,-0.02738581524330898,0.8180927756325481,-0.5702267390021649
1.3373140847398939,3.460708740247334,-0.026839175080619424,0.8018936350428704,-0.5950073719768189
1.3312000490901654,3.278125031096792,-0.026326352308323385,0.7857907923531339,-0.6210360708350293
1.3252001842255725,3.099234193704884,-0.02584638564465947,0.7697817067069379,-0.648210685566648
1.3193070485018,2.9240149438018506,-0.025398272822927663,0.7538639446237909,-0.6764307393658111
1.3135134349937732,2.7524465448137434,-0.024980975072956782,0.7380351770119113,-0.7055971894070945
1.3078123794270413,2.5845087841494987,-0.024593421159493915,0.7222931765902023,-0.73561218956877
1.3021971672281343,2.420181950033985,-0.024234511004914444,0.7066358157186097,-0.7663788539969879
1.2966613397867233,2.2594468087928057,-0.023903118920398526,0.6910610646394733,-0.7978010203827656
1.2911987000172225,2.102284582493617,-0.023598096466563974,0.6755669901360776,-0.829783011792157
1.2858033173030001,1.9486769268468471,-0.02331827496145583,0.6601517546184568,-0.8622293958483886
1.2804695319025976,1.7986059092658984,-0.02306246765073934,0.6448136156506692,-0.8950447400124364
1.2751919588942948,1.6520539869831659,-0.022829471551893448,0.6295509259382978,-0.928133361644763
1.2699654917329979,1.5090039851132673,-0.022618068981123503,0.6143621337999362,-0.961399071454888
1.2647853054917833,1.3694390745487972,-0.02242702876856928,0.5992457841519686,-0.9947449088561847
1.2596468598595216,1.2333427495664715,-0.022255107164140496,0.584200520042153,-1.028072867639767
1.254545901965859,1.1006988050125592,-0.022101048432926085,0.5692250847744875,-1.0612836102624306
1.2494784691054839,0.9714913129257852,-0.02196358513555156,0.5543183246757113,-1.094276168908211
1.2444408914351144,0.8457045984433655,-0.0218414380850525,0.5394791925627171,-1.1269476313300746
1.2394297947190436,0.7233232148209154,-0.021733315967737754,0.5247067519803188,-1.1591928093065087
1.2344421032024802,0.6043319173797812,-0.021637914611073835,0.5100001822904102,-1.190903887356462
1.2294750426963788,0.48871563617510105,-0.021553915876765063,0.4953587847068178,-1.2219700491446996
1.2245261439630872,0.3764594471545024,-0.021479986151856673,0.48078198938533334,-1.2522770787782875
1.2195932464990757,0.2675485415501697,-0.021414774404764508,0.46626936369581445,-1.2817069339446536
1.2146745028193762,0.16196819321548617,-0.021356909766536473,0.45182062182317184,-1.3101372875750383
1.2097683833583441,0.059703723581129964,-0.021304998590264003,0.4374356358668645,-1.3374410344388745
1.2048736821131396,-0.03925953613653377,-0.021257620933253146,0.4231144486345553,-1.363485758792738
1.19998952317014,-0.13493628589035467,-0.021213326397177257,0.40885728835517876,-1.3881331589348092
1.1951153682706255,-0.22734130139176756,-0.02117062925077587,0.3946645855701511,-1.4112384242720575
1.1902510255908234,-0.31648948286972,-0.021128002747503403,0.38053699249899786,-1.432649560322527
1.185396659933155,-0.4023959086070974,-0.02108387253657006,0.36647540521730526,-1.4522066569937409
1.1805528045507372,-0.48507589394557016,-0.021036609049670366,0.35248098903026115,-1.4697410955660979
1.175720374856438,-0.5645450565434729,-0.020984518726844845,0.338555207473232,-1.4850746901635903
1.170900684301746,-0.6408193887761868,-0.020925833922650083,0.3246998554199571,-1.4980187602538855
1.166095462750325,-0.713915338284437,-0.02085870130709716,0.31091709682567714,-1.5083731320906775
1.1613068777175466,-0.7838498978015735,-0.020781168543150718,0.29720950767114473,-1.5159250692912494
1.15653755890219,-0.850640705523638,-0.020691168981688428,0.2835801246946285,-1.5204481363649767
1.1517906265021425,-0.9143061574196025,-0.020586504062203477,0.27003250048770056,-1.5217010046051607
1.1470697238856529,-0.9748655330039426,-0.02046482303770548,0.2565707654631007,-1.5194262182465825
1.1423790552884674,-1.0323391361920642,-0.020323599546515712,0.24319969704232,-1.5133489515154968
1.1377234293325564,-1.0867484529033788,-0.02016010441792835,0.22992479609957372,-1.5031758061143243
1.1331083093259686,-1.1381163270220611,-0.01997137390022718,0.21675237014983453,-1.4885937266453186
1.1285398715243284,-1.186467156101827,-0.019754172200991783,0.20368962184810818,-1.46926915264507
1.1240250728427192,-1.2318271076998712,-0.01950494676952266,0.19074473987401344,-1.4448475863081813
1.1195717299510288,-1.274224356280122,-0.019219774027785564,0.17792698691077555,-1.414953843304227
1.1151886123462789,-1.3136893389866273,-0.018894292100475447,0.16524677575448657,-1.3791933826408311
1.110885553003794,-1.3502550258823192,-0.01852361522547979,0.15271571899067773,-1.3371552972776448
1.1066735817831044,-1.383957195938443,-0.018102221476169213,0.1403466293234596,-1.2884178124705403
1.1025650892645222,-1.4148347033974673,-0.017623800424545127,0.12815343553761496,-1.2325575102370507
1.0985740327128302,-1.4429297091465685,-0.01708103915538511,0.11615096228063063,-1.1691640007745925
1.0947162023794317,-1.468287837336817,-0.01646531156981982,0.1043545002432405,-1.097862399797626
1.0910095769403445,-1.4909581978555693,-0.015766213987459695,0.09277906948505246,-1.0183466820549623
1.0874748140342332,-1.5109931910055536,-0.014970854761333592,0.08143826225392592,-0.930427530017057
1.0841359495425889,-1.5284479865161842,-0.014062749513835227,0.0703425682733202,-0.8340980617726985
1.0810214236441655,-1.5433795589698676,-0.013020084385497076,0.059497192193517914,-0.7296184449719935
1.0781656235438717,-1.555845199160224,-0.01181295996488392,0.04889967902697969,-0.6176134259395545
1.0756112564502172,-1.5659005717907277,-0.01039892780602523,0.03853834384695459,-0.4991620139733886
1.0734131191844154,-1.5735977682931548,-0.008715309287903693,0.028393799652392592,-0.37583491233962996
1.0716445251022357,-1.5789846192565449,-0.006663769687570879,0.018448382637960243,-0.2496109585732629
1.0704103555876907,-1.5821085627200375,-0.004068139134559575,0.008716343131563808,-0.12260111292013162
