x,y,v_x,v_y,omega
2.375,32.48,0.0,2.923076923076923,-2.4897959183673475
2.37426411495002,31.81617995660824,-0.006399000434610517,2.8492712803296603,-2.316854065730323
2.372175020601601,31.168961700940546,-0.011767037377729425,2.7787135515633414,-2.1619405663021736
2.368951521246144,30.53762394524973,-0.01626339180015511,2.7111799761828625,-2.0226305474319988
2.364778844042851,29.921494491303164,-0.020020757793697143,2.6464674494394513,-1.8968829777372493
2.3598141957541303,29.319945759770427,-0.02315009689083159,2.584391085627836,-1.782971908759184
2.354191314100337,28.732390838930435,-0.025744526185632628,2.5247821390677356,-1.6794313648027288
2.348024211984345,28.15827997777618,-0.027882448736038082,2.4674862187953615,-1.5850109186280423
2.3414102704663318,27.597097461761855,-0.029630086203203416,2.4123617465466047,-1.4986396873629413
2.3344328037639794,27.048358819849582,-0.031043537295513304,2.3592786179079357,-1.4193970033267704
2.3271631942957507,26.511608319837485,-0.03217045808038713,2.3081170343711657,-1.3464884062240354
2.31966267609863,25.986416715673062,-0.033051439285882125,2.258766480102071,-1.2792259003725437
2.3119838295195323,25.472379215933735,-0.03372113966279397,2.2111248219790447,-1.2170116476878923
2.3041718379170635,24.96911364715753,-0.03420922209780527,2.1650975152053418,-1.159324441753548
2.2962655474759703,24.476258789433544,-0.034541129563873174,2.1205968997858387,-1.1057084434097408
2.288298363568359,23.99347286476855,-0.03473873050230976,2.077541575561957,-1.0557637634417352
2.2802990109645354,23.520432161352538,-0.03482085735702791,2.0358558454468,-1.0091385602323586
2.2722921802728386,23.056829779045287,-0.034803757353376825,1.9954692180945333,-0.9655223849731288
2.2642990790178703,22.602374483271408,-0.03470147095069771,1.9563159625478759,-0.9246405582015645
2.256337902552732,22.1567896561018,-0.034526150485286504,1.9183347084922135,-0.8862494020803319
2.248424237389475,21.71981233466063,-0.03428832919520659,1.8814680866483569,-0.850132185267956
2.240571407402261,21.29119232816791,-0.033997148954483684,1.8456624045926973,-0.8160956632231257
2.232790771614896,20.870691405937738,-0.03366055354434035,1.8108673539305513,-0.7839671177012459
2.2250919808533594,20.45808254952769,-0.033285453077718956,1.7770357452872587,-0.7535918161013356
2.2174831993651067,20.05314926299514,-0.03287786421143327,1.74412326803927,-0.724830825027654
2.2099712965328995,19.65568493587938,-0.03244302998167462,1.712088272097805,-0.6975591235881079
2.202562013003612,19.265492254108064,-0.031985522446915285,1.680891569391859,-0.6716639710668797
2.1952601048815077,18.882382654534787,-0.031509330788772966,1.6504962529844531,-0.6470434910813182
2.1880694690762144,18.50617581926117,-0.031017937083340722,1.6208675320035435,-0.6236054404794207
2.1809932524282387,18.136699206290714,-0.030514381594710354,1.5919725807830198,-0.6012661363058937
2.174033946843237,17.77378761340926,-0.03000131914443494,1.5637804007948517,-0.5799495183627545
2.1671934723372814,17.417282772494644,-0.029481067863873278,1.536261694114856,-0.5595863283757255
2.1604732496183257,17.067032971731322,-0.02895565143139454,1.50938874730532,-0.5401133896797368
2.153874263595253,16.722892703448323,-0.028426835725758482,1.4831353247207562,-0.5214729737601559
2.1474085943518704,16.38472312139159,-0.02779637508626623,1.457469736642127,-0.5008321675535873
2.1410869256547227,16.05239089175855,-0.027174657062841816,1.4323757384277915,-0.48124189576361065
2.134907168284605,15.725767124982,-0.026562363546875543,1.407830929194365,-0.4626351796734189
2.1288670915534187,15.404727953444326,-0.0259600428112682,1.3838140406984452,-0.4449501186297566
2.1229643519726866,15.089154279194599,-0.025368127455965964,1.3603048658209334,-0.4281294446721829
2.117196518061527,14.778931537497545,-0.024786950032379348,1.337284192414312,-0.41212012137145376
2.111561091792426,14.473949475034459,-0.02421675665545524,1.3147337420473002,-0.39687298198975923
2.1060555271071038,14.174101941677897,-0.023657718869087036,1.2926361132271436,-0.38234240266966957
2.100677245877871,13.879286694853906,-0.023109943993806396,1.2709747287205877,-0.36848600687414784
2.095423651640837,13.589405215588478,-0.022573484154315704,1.249733786630954,-0.3552643977480983
2.09029214138497,13.304362535409979,-0.022048344157568154,1.2288982149211973,-0.34264091546215775
2.0852801156444043,13.024067073347329,-0.021534488369092223,1.2084536291018595,-0.33058141693986676
2.0803849871096753,12.7484304823253,-0.021031846715509454,1.1883862928288182,-0.3190540756668493
2.075604187946106,12.477367504314394,-0.02054031992422119,1.1686830811790503,-0.3080291995410272
2.070935175983708,12.210795833643544,-0.020059784096630732,1.1493314463935476,-0.29747906495120113
2.066375439922248,11.94863598793032,-0.01959009469867541,1.1303193858953515,-0.28737776547180927
2.061922503677119,11.69081118612548,-0.019131090041575136,1.1116354124076095,-0.2777010737379983
2.057573929975962,11.437247233207245,-0.018682594316311894,1.0932685260118329,-0.26842631522044924
2.0533273233023053,11.187872411095846,-0.018244420237227544,1.075208188000323,-0.25953225275640274
2.049180332270569,10.942617375391052,-0.01781637134308621,1.0574442963891868,-0.2509989808143531
2.0451306515063625,10.701415057564788,-0.017398243997840134,1.0399671629696365,-0.24280782857694666
2.0411760230968867,10.464200572267949,-0.01698982912803412,1.022767491785477,-0.23494127102146226
2.037314237668308,10.230911129435217,-0.01659091372917276,1.0058363589339379,-0.22738284726138377
2.0335431351399764,10.001485950894342,-0.016201282169361612,0.9891651935954171,-0.2201170854873006
2.0298637208242223,9.775966706115408,-0.01579362492415503,0.9718717175257552,-0.23060527531336195
2.0262753470691535,9.554410438170677,-0.015409625119919505,0.9547045254718967,-0.24336947746468057
2.022772511772321,9.336788533092058,-0.015049812243841457,0.9376598665160942,-0.25828497569831954
2.019349608255502,9.123073222142065,-0.01471456616328048,0.9207341417447156,-0.275231015028732
2.0160009582036995,8.913237547673798,-0.014404129939352708,0.9039238971097644,-0.2940905152865718
2.0127208417745055,8.707255330572075,-0.014118621618856131,0.8872258168182651,-0.31474979591999597
2.0095035251039595,8.505101139157528,-0.013858045081542928,0.8706367172212681,-0.3370983108910629
2.0063432854180454,8.306750259441685,-0.013622300013362355,0.854153541177361,-0.3610283925663928
2.0032344339434127,8.112178666626406,-0.013411191070398813,0.8377733528685589,-0.3864350035401184
2.000171336796649,7.921362997745849,-0.013224436292762858,0.821493333049327,-0.4132154953585532
1.9971484340183812,7.734280525353263,-0.013061674822611695,0.8053107747122821,-0.4412693731400742
1.994160256906571,7.55090913215831,-0.012922473975737305,0.7892230791568665,-0.4704980651005273
1.9912014437925127,7.371227286523521,-0.012806335711724992,0.7732277524500121,-0.5008046960039966
1.9882667543931603,7.195214018730656,-0.012712702543515452,0.7573224022705455,-0.5320938635609437
1.9853510828644805,7.022848897929379,-0.01264096292326405,0.7415047351318644,-0.5642714167903349
1.9824494696724757,6.854112009681483,-0.01259045613764775,0.7257725539802716,-0.5972442353491719
1.9795571123912943,6.688983934014278,-0.012560476742190395,0.7101237561693268,-0.6309200088114661
1.9766693755314586,6.5274457238962285,-0.01255027856072804,0.6945563318137109,-0.6652070148486954
1.9737817994956046,6.369478884046767,-0.012559078272785974,0.6790683625294379,-0.7000138952246018
1.9708901087542734,6.215065349990233,-0.012586058608355046,0.6636580205708456,-0.7352494284681628
1.9679902193301875,6.064187467261032,-0.012630371166303965,0.648323568378719,-0.7708222980289166
1.9650782456760802,5.916827970663288,-0.01269113886941165,0.6330633585582007,-0.8066408546476478
1.9621505070285408,5.772969963483455,-0.012767458065713406,0.6178758343099131,-0.8426128715917051
1.9592035333184978,5.632596896548364,-0.012858400282488048,0.6027595303430381,-0.8786452913067673
1.956234070717903,5.495692547013832,-0.012963013635728758,0.5877130743050821,-0.9146439619244108
1.9532390869019502,5.362240996760221,-0.013080323894293434,0.5727351887698078,-0.9505133619359186
1.9502157761067882,5.232226610260959,-0.01320933519407125,0.5578246938324861,-0.9861563111958971
1.9471615640642317,5.1056340117776315,-0.01334903039337678,0.5429805103703702,-1.021473666252782
1.9440741128975154,4.982448061720863,-0.013498371056330645,0.5282016640363009,-1.0563639978155819
1.9409513260657314,4.862653831999232,-0.013656297046138563,0.5134872900648427,-1.090723247955585
1.9377913534493663,4.746236580158666,-0.013821725704862776,0.4988366389835622,-1.1244443644067839
1.9345925966754105,4.633181722091766,-0.013993550590404703,0.4842490833372866,-1.1574169090683475
1.931353714788002,4.523474803069643,-0.014170639734887636,0.46972412555074905,-1.1895266375260678
1.9280736303796369,4.417101466817648,-0.014351833381331284,0.4552614070752977,-1.2206550460978771
1.924751536308842,4.314047422320282,-0.014535941147317719,0.4408607189887426,-1.2506788825734374
1.9213869031430626,4.2142984079984736,-0.014721738555111812,0.42652201424437575,-1.279469616464113
1.9179794874806415,4.117840152853805,-0.014907962857245296,0.4122454217962149,-1.3068928642158344
1.9145293413234683,4.024658334117987,-0.015093308074697002,0.3980312628630612,-1.3328077644775838
1.9110368226924836,3.934738530880768,-0.0152764191512569,0.38388006963448634,-1.3570662981850155
1.907502607702192,3.848066173094516,-0.015455885112148031,0.3697926067677057,-1.3795125479469097
1.903927704338126,3.764626485267538,-0.01563023109712216,0.3557698960755844,-1.3999818910647466
1.9003134682134377,3.684404424059661,-0.01579790911755764,0.3418132448624753,-1.4183001205521448
1.896661620618182,3.6073846088815777,-0.015957287362926644,0.32792427842521626,-1.434282488869594
1.8929742692182958,3.533551244473262,-0.016106637853474944,0.31410497729926923,-1.4477326699261004
1.8892539318119388,3.4628880342964266,-0.016244122201802356,0.3003577198905976,-1.4584416364819337
1.8855035636102286,3.395378083422692,-0.016367775204374654,0.286685331185349,-1.4661864527973978
1.881726588579546,3.331003789436501,-0.01647548593199487,0.27309113825978515,-1.4707289867744633
1.877926935466396,3.26974671970682,-0.016564975921483236,0.25957903330265103,-1.4718145527618494
1.8741090792274713,3.211587473227329,-0.016633773982210522,0.24615354477989065,-1.4691705068666554
1.8702780887134485,3.156505525103384,-0.016679187009291243,0.2328199171674704,-1.4625048328511168
1.866439681614913,3.1044790517126444,-0.016698266021453637,0.2195841992737317,-1.4515047811762416
1.8626002878881918,3.055484734644864,-0.01668776638481681,0.20645334044610306,-1.4358356604577687
1.8587671231628506,3.009497541830811,-0.016644100792062487,0.19343529271956736,-1.4151399353926177
1.8549482740322594,2.966490484951379,-0.016563282952208335,0.1805391149276652,-1.389036866725715
1.8511527977122486,2.9264343535091477,-0.016440858960930387,0.16777507152653265,-1.3571230496318414
1.8473908394347913,2.8892974282037116,-0.016271821712609543,0.15515471373813305,-1.3189743849944704
1.843673772316783,2.8550451800144394,-0.016050501052680025,0.14269092269031153,-1.274150278471714
1.8400143666349127,2.8236399674397816,-0.015770417920105705,0.13039788230672514,-1.2222012376466949
1.8364269989997823,2.7950407537520228,-0.015424083254942192,0.11829093236944344,-1.1626815656663712
1.83292791779074,2.769202880270612,-0.015002709867163967,0.10638622833846345,-1.0951695606968177
1.8295355909549595,2.746077951948738,-0.014495784357014098,0.09470010489520758,-1.0192985092582874
1.8262711784851993,2.7256139185957444,-0.013890411032205417,0.08324801121777192,-0.9348026533449307
1.8231591988004219,2.707755466269173,-0.013170281878902068,0.07204287857848525,-0.8415827108800246
1.8202285027156222,2.6924448577537916,-0.012314031901963838,0.06109284764222965,-0.739794175039644
1.8175137423253842,2.679623348587068,-0.011292580187062577,0.05039853641623834,-0.6299559055134475
1.8150576486273944,2.66923318951779,-0.010064756317197294,0.03995067288183704,-0.5130622765319902
1.8129146786657047,2.6612198830192,-0.008569765088799839,0.02973025319285227,-0.3906557466256648
1.811157223009642,2.655533566664701,-0.006712458007398639,0.019715975976703826,-0.2647829671759085
1.8098878743514013,2.652126486501345,-0.004325356412086034,0.009910808052468214,-0.13774025403434595
1.8092751839272343,2.650935059337062,-0.0010023864067552572,0.0004494281586740357,-0.0115759670881449
