x,y,v_x,v_y,omega
2.375,32.48,0.0,2.923076923076923,-2.4897959183673475
2.3745071697259457,31.93067265465034,-0.005187687095308628,2.8593161858668097,-2.344550997072567
2.3730963169269734,31.39323931163629,-0.009663394999134399,2.797876898491646,-2.21186085128971
2.370893894843463,30.867271702495476,-0.01351999535360841,2.7386242503590186,-2.090309317628899
2.3680099564989705,30.352366175923738,-0.016837250377891827,2.68143392408034,-1.9786694350416472
2.3645404525986238,29.848141803468764,-0.01968384330997015,2.6261910491299254,-1.8758747144126664
2.360569176316587,29.354238671662753,-0.02211906492199512,2.5727892856701735,-1.780995260628155
2.356169414299505,28.870316337745127,-0.02419421946834336,2.52113001872588,-1.6932178478174893
2.3514053523746847,28.396052429549,-0.025953800792917914,2.4711216464964942,-1.6118292296721017
2.3463332757558373,27.931141372935073,-0.027436479405480326,2.4226789494395824,-1.536202108514638
2.341002596529056,27.475293232481143,-0.028675933508003484,2.375722529022834,-1.4657832983482868
2.3354567355255846,27.028232653072326,-0.029701550739065805,2.330178306859465,-1.4000837053753694
2.3297338810726744,26.58969789166148,-0.03053902244946108,2.2859770764126015,-1.3386698196578193
2.3238676433464867,26.15943992984021,-0.031210848352517022,2.243054100653408,-1.281156467670952
2.317887619964146,25.737221659024105,-0.031736766198437766,2.201348750042418,-1.227200620515033
2.3118198859138723,25.322817131048414,-0.03213411854128564,2.1608041760175047,-1.176496088836633
2.305687418827913,24.916010867821093,-0.03241816657407367,2.1213670158490197,-1.1287689648857258
2.299510468869546,24.516597224412973,-0.03260235930347157,2.08298712528909,-1.083773696005662
2.2933068810660755,24.124379800598238,-0.03269856494358964,2.0456173359186383,-1.0412896933254145
2.287092376721044,23.7391708964086,-0.032717270267266105,2.0092132344986147,-1.0011183953647342
2.280880799537732,23.360791007743675,-0.0326677527149683,1.9737329619742658,-0.9630807193585201
2.2746843312475047,22.989068358499146,-0.03255822928742059,1.9391370300733946,-0.9270148439005463
2.268513680832467,22.623838466041633,-0.03239598560771484,1.9053881536898967,-0.8927742754317626
2.2623782508390358,22.264943737182467,-0.03218748800734935,1.8724510974592126,-0.8602261585010381
2.2562862837787216,21.912233092087604,-0.03193848104858937,1.8402925351182735,-0.8292497958844247
2.2502449911890627,21.565561613813024,-0.03165407252677019,1.808880920403613,-0.799735349786727
2.244260667568685,21.224790221378456,-0.03133880768772973,1.7781863683813335,-0.771582699647441
2.238338791095341,20.889785364490884,-0.030996734136944776,1.748180546224685,-0.7447004356787895
2.232484112775871,20.560418738206174,-0.030631458699580543,1.7188365725617378,-0.7190049702961706
2.2267007354551946,20.236567015974934,-0.03024619730754054,1.6901289246091884,-0.6944197521583735
2.2209921839216555,19.91811159965996,-0.029843818834976377,1.6620333523905724,-0.6708745696962961
2.2153614671834108,19.604938385238942,-0.029426883672863443,1.6345267994095962,-0.6483049328401922
2.209811133850873,19.29693754301977,-0.02899767772227536,1.6075873292132763,-0.6266515232107049
2.2043433214400467,18.99400331129757,-0.028558242391680814,1.5811940573361836,-0.60585970436271
2.198959800308026,18.696033802474737,-0.028110401103276443,1.5553270881672947,-0.5858790848002022
2.193662012842454,18.40293082074792,-0.027655782744845595,1.529967456325559,-0.5666631274457954
2.1884511084494136,18.11459969054084,-0.02719584244505318,1.50509707217,-0.5481688000753412
2.183327974817142,17.830949094929657,-0.02673187999991485,1.4806986711055894,-0.5303562619380103
2.178296963838211,17.55189150457055,-0.026226130304620544,1.4567496484639586,-0.5119778228541464
2.1733616594373735,17.27734241969614,-0.025724442335772403,1.4332407186350908,-0.4944030592840282
2.168521233796243,17.007219655495142,-0.025227406518235188,1.410156799270159,-0.4775876024863699
2.163774755072607,16.741443830461286,-0.024735527414770052,1.387483464244102,-0.46148999528197443
2.1591212027996605,16.479938245125485,-0.02424923335309352,1.3652069077117122,-0.44607147058227364
2.154559481557092,16.222628767395346,-0.02376888498973183,1.3433139105002767,-0.431295749010026
2.150088433104481,15.969443724074878,-0.023294782932488947,1.3217918086625424,-0.41712885377644926
2.145706847145674,15.720313798169194,-0.022827174528634853,1.3006284640288601,-0.40353894117344385
2.1414134708737103,15.475171931608404,-0.022366259913089534,1.2798122366110152,-0.39049614521150644
2.137207017428998,15.233953233051711,-0.02191219739967341,1.2593319587226053,-0.37797243508623873
2.1330861733886026,14.99659489045732,-0.02146510828869807,1.2391769106920196,-0.365941484291449
2.129049605391395,14.763036088126427,-0.02102508115559547,1.219336798054233,-0.3543785503168286
2.1250959659922253,14.533217927950172,-0.02059217567776787,1.1998017301168533,-0.34326036397488596
2.121223898828064,14.307083354607666,-0.0201664260502464,1.1805621998042524,-0.33256502749683425
2.11743204316997,14.084577084480593,-0.019747844034954005,1.1616090646912418,-0.3222719206218291
2.113719037926738,13.865645538066175,-0.019336421683275186,1.1429335291447191,-0.3123616139795642
2.1100835251589474,13.650236775685112,-0.018932133767151603,1.1245271274980517,-0.302815789133798
2.1065241531558208,13.438300436294867,-0.018534939949972278,1.1063817081887592,-0.2936171647148374
2.1030395791216945,13.229787679231375,-0.01814478672504255,1.088489418795354,-0.28474942812315357
2.0996284715139133,13.024651128713984,-0.017761609146339515,1.070842691914038,-0.27619717233485813
2.096289512069524,12.822844820959212,-0.017385332373542926,1.05343423182039,-0.26794583738335753
2.0930213975541996,12.624324153759076,-0.01701587305092558,1.0362570018652422,-0.2599816561306709
2.089822841263294,12.429045838388898,-0.01665314053755793,1.0193042125576661,-0.25229160397713385
2.086692574301808,12.236967853718234,-0.01629703800439479,1.0025693102914157,-0.2448633521899413
2.0836293466672378,12.048049402406491,-0.015947463412138606,0.9860459666743113,-0.23768522455958563
2.080634638940915,11.862454363423296,-0.015575775812306918,0.9675860226224832,-0.27313546533671057
2.0777070243323865,11.68035674344005,-0.015241220066944814,0.9492310298327415,-0.30989622509787385
2.0748395425418718,11.50173685761181,-0.01494279878057567,0.9309782946750601,-0.34786630730118184
2.072025426397518,11.326575523104019,-0.014679476423149642,0.9128252264595726,-0.38694619707328826
2.0692581086887567,11.1548540398211,-0.01445018366907414,0.8947693344132549,-0.42703784258560806
2.0665312282147092,10.986554171676207,-0.014253821320899598,0.8768082250066639,-0.4680444383931843
2.0638386351240863,10.821658128335908,-0.014089263843552101,0.8589395996280469,-0.5098702098071491
2.0611743956183997,10.660148547373794,-0.013955362532098168,0.8411612526047396,-0.5524201973536653
2.0585327960861948,10.502008476766765,-0.013850948333213531,0.8234710695745092,-0.5956000403464885
2.0559083467324504,10.347221357667006,-0.013774834337781311,0.8058670262124048,-0.6393157585663763
2.053295784764224,10.195771007381257,-0.013725817959339734,0.788347187321798,-0.683473530997919
2.050690077191098,10.047641602487026,-0.013702682810408382,0.7709097063016784,-0.727979470522292
2.0480864232969376,9.9028176620128,-0.013704200286017088,0.7535528250059682,-0.7727393934021566
2.0454802568379695,9.761284030605836,-0.013729130861013086,0.7362748740146992,-0.8176585823215403
2.0428672480212082,9.623025861607005,-0.013776225104898482,0.7190742733414344,-0.8626415416579875
2.040243305316816,9.488028599946961,-0.013844224415017125,0.7019495336063849,-0.9075917435654167
2.0376045771581355,9.35627796477187,-0.013931861465830527,0.6848992577103838,-0.9524113633326432
2.03494745358385,9.227759931699506,-0.014037860368755485,0.667922143051333,-0.9970010023529877
2.0322685678781323,9.102460714598081,-0.01416093653353667,0.6510169843320721,-1.0412593968932355
2.029564798266703,8.98036674676992,-0.01429979621834505,0.6341826770169833,-1.0850831106837364
2.026833269729552,8.861464661410409,-0.014453135751671736,0.6174182215042103,-1.1283662091638997
2.0240713559947094,8.745741271198831,-0.014619640404563322,0.6007227280913473,-1.1709999130069588
2.0212766817820347,8.633183546861773,-0.014797982886747964,0.5840954228250725,-1.212872228312923
2.018447125371502,8.523778594531116,-0.014986821434650627,0.5675356543397353,-1.2538675505976076
2.015580821577166,8.417513631697208,-0.015184797453099485,0.5510429018066657,-1.2938662394174292
2.012676165215891,8.314375961532718,-0.015390532665578974,0.5346167841353204,-1.3327441601538874
2.0097318151692547,8.214352945333843,-0.015602625720068757,0.5182570705897003,-1.370372189139164
2.0067466991479233,8.117431972791945,-0.015819648188684143,0.5019636930092272,-1.406615677937707
2.003720019280511,8.023600429770038,-0.016040139889342782,0.4857367598529319,-1.441333872213558
2.000651258663621,7.9328456632136195,-0.016262603446338217,0.4695765723198889,-1.4743792802193099
1.9975401890268094,7.8451549427736325,-0.016485497993782953,0.4534836428378566,-1.5055969855560811
1.9943868796858428,7.7605154186596685,-0.016707231911127697,0.43745871625650645,-1.5348238985002198
1.9911917079802963,7.678914075172781,-0.01692615446304636,0.4215027941317968,-1.5618879399107977
1.9879553714176401,7.600337679288575,-0.017140546196493345,0.40561716254405994,-1.5866071515815168
1.9846789017760822,7.524772723571271,-0.017348607925168902,0.389803423953865,-1.6087887269699153
1.98136368145319,7.452205362597429,-0.017548448105274398,0.37406353366554207,-1.628227956656936
1.9780114623875313,7.382621341953286,-0.017738068375343658,0.3583998415359623,-1.6447070838546918
1.9746243879272796,7.316005918742402,-0.01791534699572908,0.34281513963122007,-1.657994067074737
1.971205018074277,7.252343772401542,-0.018078019877981598,0.32731271658835337,-1.667841250112527
1.9677563585962758,7.191618904475998,-0.018223658837820643,0.31189641946999613,-1.673983944412318
1.9642818945765608,7.1338145258572325,-0.018349646632862544,0.2965707238854134,-1.6761389365571306
1.9607856290626735,7.0789129298476645,-0.0184531482501613,0.28134081305740954,-1.6740029454156728
1.9572721275901284,7.02689534930996,-0.01853107777663096,0.2662126662868384,-1.6672510713405266
1.953746569501591,6.977741796114817,-0.01858005999744682,0.25119315681992305,-1.6555353066533347
1.9502148071707581,6.93143088117592,-0.018596385590265975,0.23629015832636324,-1.638483216756747
1.9466834344953905,6.887939613639627,-0.018575958360973182,0.22151265784515256,-1.6156969608871306
1.9431598663820107,6.847243178414473,-0.018514232306183657,0.2068708708406795,-1.5867529100118187
1.9396524314659822,6.809314692390025,-0.018406135230956494,0.19237635046931498,-1.5512022501065457
1.9361704810957727,6.774124941723102,-0.018245973929143237,0.17804207760357804,-1.508573151190788
1.93272451882864,6.741642105935949,-0.018027313093308944,0.16388250962961645,-1.4583753625775837
1.9293263566228374,6.711831479963493,-0.017742815388821477,0.14991355323833577,-1.4001084974280467
1.9259893070520517,6.684655213657841,-0.01738402219839568,0.13615240787378524,-1.3332758348047482
1.922728426025478,6.660072100815441,-0.016941041239223385,0.12261720099358447,-1.2574062272613749
1.9195608290336788,6.638037467792618,-0.0164020849902433,0.10932630450980943,-1.172087642803217
1.916506118106245,6.618503235795224,-0.015752766877478154,0.09629719019958306,-1.0770168356242353
1.9135869801237524,6.6014182589171355,-0.014975001359288226,0.08354467167504773,-0.972070117480752
1.910830055790045,6.58672906281798,-0.014045254784998299,0.07107844515816972,-0.8573989081557923
1.9082672423870806,6.574381101460851,-0.012931728404102057,0.05890009544317781,-0.7335480173434841
1.9059377021735782,6.564320555840901,-0.011589747527501536,0.04700038476680875,-0.6015801096806341
1.9038910562399602,6.556496413948878,-0.009953893879003502,0.035359003570280614,-0.4631624622314501
1.9021927544616055,6.550861909714019,-0.00792296694578276,0.023951567322980656,-0.3205358645447006
1.900934391510548,6.547372860778953,-0.0053229588548209476,0.01277526357243327,-0.17626374722586083
1.9002615271827499,6.545974426536414,-0.0017598235430544749,0.0019450968753274532,-0.032705415667497434
