x,y,v_x,v_y,omega
2.375,32.48,0.0,3.3846153846153846,-7.387755102040816
2.372927070760633,31.778633031267585,-0.019742183232065388,3.295070031883768,-6.84797075076398
2.367052817605804,31.09561514360303,-0.03620308490916521,3.209862231588177,-6.367839010140155
2.358010885894536,30.43007172384911,-0.049910550436240764,3.12864652797299,-5.938853858987984
2.3463338080408476,29.781196498413887,-0.061299714836985666,3.051117523791036,-5.553946499350714
2.332470570649734,29.148243793620704,-0.07073111745933222,2.977003474239268,-5.2072070955843595
2.3168007926962795,28.53052200307253,-0.07850486304975945,2.9060611976481114,-4.893667243810425
2.2996462437275538,27.92738801950576,-0.08487179379524597,2.83807197917828,-4.609128378273454
2.281280256060863,27.33824244712772,-0.09004237445895331,2.772838233945917,-4.3500253113993805
2.261935456755015,26.762525452902942,-0.09419380940626734,2.710180758671007,-4.113316912397977
2.2418101498714798,26.19971314650454,-0.09747577996073249,2.6499364451233047,-3.8963979363931145
2.2210736078593434,25.649314401945883,-0.10001509634532796,2.59195636019723,-3.6970274709893713
2.199870476352169,25.110868051496414,-0.1019194894372844,2.536104120273895,-3.5132705352359124
2.178324454747039,24.583940395922493,-0.10328071632585917,2.482254504239651,-3.34345015900806
2.1565413824376054,24.068122985477146,-0.10417711519255633,2.4302922619064926,-3.1861078658264614
2.134611835177676,23.563030634173025,-0.10467571585439141,2.380111083847062,-3.039970932762632
2.1126133160655103,23.068299636273633,-0.10483398997575724,2.3316127056709592,-2.9039251453166597
2.090612109807807,22.583586159039292,-0.10470130771665724,2.2847061251322636,-2.776992030199024
2.068664856308473,22.108564789867437,-0.10432015418175797,2.2393069145996907,-2.658309754508431
2.04681988952247,21.642927219296286,-0.10372714854208356,2.195336614649374,-2.5471170402958534
2.025118379379755,21.1863810440647,-0.10295390043615095,2.1527221970800303,-2.442739569602731
2.003595308004421,20.738648676666408,-0.10202773170989346,2.111395587665613,-2.3445784547085693
1.9822803061091165,20.299466349701348,-0.1009722863406236,2.0712932405730298,-2.2521004274970227
1.9611983710854872,19.868583204885528,-0.09980804721774945,2.032355757672864,-2.1648294650778985
1.9403704847422563,19.445760457891986,-0.09855277509873756,1.9945275470275503,-2.0823396195398693
1.9198141457100402,19.030770631304968,-0.09722188235093875,1.9577565157059567,-2.004248860607876
1.8995438291142097,18.623396848913366,-0.09582875189506447,1.9219937927854684,-1.9302137730900486
1.8795713841172867,18.223432185376627,-0.09438500998039291,1.8871934789930214,-1.8599249779144236
1.8599063782731529,17.830679065989834,-0.0929007599637403,1.8533124199288347,-1.7931031675204328
1.8405563962546436,17.44494871187321,-0.09138478306968142,1.8203100002294579,-1.729495664361559
1.8215272993639227,17.066060626429767,-0.08984471112765963,1.7881479563747962,-1.6688734260650195
1.802823451270946,16.693842119365854,-0.08828717547211849,1.7567902061386576,-1.6110284329933064
1.7844479146165226,16.328127864963292,-0.08671793552239111,1.7262026929333558,-1.555771404047721
1.766402622436254,15.968759491636376,-0.08514199000397524,1.6963532435134636,-1.5029297949348603
1.748688527788157,15.615585200110225,-0.08356367331123497,1.6672114376879934,-1.4523460400957469
1.7313057344821696,15.26845940782384,-0.08198673912673876,1.638748488848984,-1.4038760053255808
1.7142536113993287,14.927242417397217,-0.0804144330907933,1.6109371342617236,-1.3573876229934239
1.6975308925400459,14.591800107210737,-0.07884955604523401,1.5837515341809338,-1.3127596858705912
1.6811357646446305,14.262003642330843,-0.077294519149197,1.557167178960922,-1.269880779028525
1.6650659439766868,13.937729204181032,-0.07575139197407711,1.5311608034182325,-1.228648332181212
1.6493187436443728,13.618857737504733,-0.07422194452415157,1.5057103077846004,-1.1889677773137028
1.6338911326500227,13.3052747132983,-0.07270768399346712,1.4807946846576117,-1.150751798530855
1.6188002062165983,12.996873761621142,-0.07101542489629108,1.4563572360772346,-1.1083691108176572
1.6040608753759853,12.693552351967547,-0.0693591545381178,1.4324180939569913,-1.0679810500110163
1.589665582377855,12.39520776170042,-0.06773887401550464,1.4089589562061389,-1.0294696109229686
1.5756067828829736,12.101741020584548,-0.0661544545071758,1.385962387754549,-0.9927250983815026
1.561876971187309,11.813056734139224,-0.06460565688010457,1.36341176886759,-0.9576454491779853
1.548468701593635,11.529062917458138,-0.06309214877393626,1.3412912471427683,-0.9241356167188138
1.5353746064263971,11.249670838755527,-0.06161351948547119,1.3195856928821004,-0.8921070119140884
1.5225874111225062,10.97479487195876,-0.06016929293253631,1.2982806575632861,-0.8614769945706899
1.5100999467758867,10.704352357722946,-0.05875893894003002,1.2773623351587382,-0.8321684102007528
1.4979051604659488,10.438263472293432,-0.05738188305937907,1.2568175260747483,-0.8041091677213403
1.4859961236586487,10.176451103687675,-0.05603751510538135,1.2366336035038787,-0.7772318540175963
1.4743660389326485,9.918840734709523,-0.05472519657081379,1.2167984820023325,-0.7514733817786962
1.4630082452515452,9.66536033234659,-0.053444267058741626,1.1973005881208156,-0.7267746674012562
1.45191622197563,9.415940243135992,-0.05219404985473367,1.1781288329324981,-0.7030803360950924
1.4410835917825753,9.170513094114977,-0.050973856745789706,1.159272586315266,-0.6803384516270651
1.4305041226454303,8.929013699001814,-0.04978299217940084,1.1407216528577195,-0.6585002684051335
1.4201717289979192,8.69137896927846,-0.0486207568445151,1.1224662492694537,-0.6375200038409435
1.4100804722009115,8.45754782987062,-0.0474864507460338,1.1044969831861704,-0.617354629138988
1.4002245604098382,8.2274611391428,-0.046379375835617034,1.0868048332692561,-0.5979636768468177
1.3905983479304436,8.001061612946224,-0.04529883825385503,1.0693811305076806,-0.5793090636667451
1.3811963341394164,7.7782937524759745,-0.044244150232117196,1.0522175406375476,-0.5613549271773993
1.3720131620369123,7.559103775710884,-0.043214631696493665,1.0353060476014178,-0.5440674752454899
1.3630436164896167,7.343439552225288,-0.042209611611083914,1.0186389379757026,-0.5274148470260629
1.3542826222156492,7.131250541176332,-0.041228429093368324,1.0022087863000562,-0.5113669845550212
1.3457252415561496,6.922487732283805,-0.04027043433043826,0.9860084412478254,-0.495895514032141
1.337375070748421,6.717251497084732,-0.039255001933642036,0.9686223701719138,-0.5093066350535914
1.3292333623366155,6.515654139761576,-0.03828507817879337,0.9513524614772012,-0.524729747540194
1.3212906456005495,6.317671609325423,-0.0373598431170731,0.9341954474385397,-0.5420474964592992
1.3135376289072342,6.123280527222562,-0.036478411104977584,0.9171481916363355,-0.5611458265288145
1.3059652127776562,5.93245816034473,-0.0356398377481471,0.900207683390628,-0.5819137200385898
1.2985645015581568,5.745182395161194,-0.03484312624708572,0.8833710326430431,-0.6042429436359797
1.2913268138173923,5.561431712880658,-0.034087233188766254,0.8666354652668299,-0.628027803018769
1.2842436915810125,5.3811851655549106,-0.03337107382437455,0.8499983187879112,-0.653164904513772
1.2773069085081084,5.204422353039412,-0.03269352686994959,0.8334570385025367,-0.6795529225473055
1.2705084771061075,5.031123400728774,-0.032053438863392986,0.817009173979735,-0.7070923720345382
1.2638406550740873,4.861268937987269,-0.03144962810822782,0.8006523759393559,-0.7356853847285214
1.2572959508584096,4.694840077196233,-0.030880888231558924,0.784384393499096,-0.7652354885765175
1.2508671284991013,4.53181839334124,-0.030345991380900286,0.7682030717865551,-0.7956473891310031
1.2445472118405105,4.372185904062569,-0.029843691081869027,0.7521063499150866,-0.8268267520552885
1.2383294881754159,4.2159250500923555,-0.029372724776175644,0.7360922593250459,-0.8586799857488705
1.2322075113879487,4.063018676001249,-0.028931816056846096,0.7201589224950169,-0.8911140230951285
1.226175104657387,3.9134500111760424,-0.028519676615169715,0.704304552030771,-0.9240361013034308
1.2202263627820913,3.767202650947784,-0.028135007911455578,0.6885274501431159,-0.9573535387787052
1.2143556541805645,3.6242605377871584,-0.027776502579275514,0.6728260085294905,-0.9909735079035388
1.2085576226248433,3.484607942480352,-0.02744284557044995,0.6571987086781996,-1.0248028025603166
1.2028271887601614,3.3482294451941854,-0.027132715045567832,0.6416441226186368,-1.0587475991531432
1.1971595514640856,3.2151099163339225,-0.026844783012296602,0.6261609141457826,-1.0927132098105874
1.1915501890981286,3.0852344970905747,-0.026577715711103553,0.6107478405527814,-1.1266038263598956
1.1859948607052122,2.9585885795668183,-0.02633017374524394,0.5954037549115814,-1.160322253560428
1.180489607207323,2.835157786361499,-0.026100811948939765,0.5801276089485868,-1.193769629967902
1.1750307526593078,2.714927949482032,-0.025888278984537803,0.5649184565701476,-1.2268451346708482
1.1696149056170455,2.597885088441494,-0.02569121665605443,0.5497754581016303,-1.2594456779958936
1.1642389606812615,2.4840153873828577,-0.02550825892284105,0.5346978853139562,-1.2914655741187018
1.1589001002820893,2.373305171055975,-0.02533803059308494,0.5196851273230217,-1.3227961933426902
1.1535957967742096,2.2657408794536984,-0.02517914567243679,0.504736697460549,-1.353325591618606
1.148323814918097,2.1613090408912043,-0.02503020533816061,0.4898522412298658,-1.382938114676295
1.1430822148296957,2.059996243286971,-0.024889795503756747,0.47503154547712517,-1.4115139739284848
1.1378693554888442,1.9617891033744534,-0.024756483932924782,0.4602745489277998,-1.4389287910901227
1.132683898906122,1.8666742335397188,-0.02462881685490496,0.4455813542601659,-1.4650531082436709
1.1275248150586754,1.7746382059416241,-0.02450531502553937,0.43095224191216724,-1.4897518598828927
1.122391387718178,1.6856675135270507,-0.02438446916967507,0.4163876858456882,-1.5128838033031997
1.1172832213086488,1.599748527503344,-0.024264734730602283,0.40188837152294443,-1.5343009036022792
1.1122002489486473,1.5168674507731872,-0.024144525840840786,0.3874552163833128,-1.5538476695494332
1.1071427418517377,1.4370102667727096,-0.02402220841544264,0.37308939314504336,-1.5713604367321585
1.1021113202814836,1.360162683081608,-0.023896092253644228,0.3587923562940224,-1.5866665947751104
1.0971069662831092,1.2863100690940001,-0.023764422016587187,0.3445658721593859,-1.5995837561661757
1.0921310384440226,1.215437386951173,-0.023625366927095753,0.33041205301040977,-1.6099188654838612
1.087185288970531,1.147529114843305,-0.023477009010920338,0.3163333956359545,-1.6174672498386908
1.0822718834094962,1.0825691616892144,-0.02331732966560062,0.30233282487919433,-1.6220116144613614
1.0773934233930684,1.0205407721055266,-0.023144194300378694,0.28841374258448943,-1.6233209920831155
1.072552972844448,0.9614264204872356,-0.0229553347341012,0.2745800823516281,-1.621149661763703
1.0677540881564558,0.9052076929528177,-0.022748328961062964,0.2608363703570986,-1.615236063141156
1.0630008529479467,0.8518651558790964,-0.022520577786643382,0.2471877922497726,-1.6053017471587219
1.058297918124111,0.801378209794894,-0.0222692776784585,0.23364026569501148,-1.5910504262547003
1.0536505481283878,0.7537249275667186,-0.02199138894747746,0.22020051743047342,-1.5721672187721725
1.0490646744964454,0.7088818761670623,-0.021683598023402598,0.20687616256624247,-1.5483182282284293
1.0445469581388676,0.6668239219768246,-0.02134227204876662,0.193675782102695,-1.5191506641280639
1.040104862240726,0.6275240207010953,-0.020963403171629248,0.1806089919518702,-1.484293805662514
1.0357467383567625,0.5909529948113175,-0.020542538580405365,0.16768649271267558,-1.4433612444464643
1.0314819293356199,0.5570793043082425,-0.02007469019238161,0.15492008350709072,-1.395955032486039
1.0273208943441419,0.5258688210020779,-0.01955421448836234,0.14232261464687382,-1.3416726250667368
1.0232753638362964,0.4972846230466246,-0.018974647491118136,0.1299078420717302,-1.2801178635020896
1.0193585363876576,0.47128683586888087,-0.01832847106734557,0.11769013104966608,-1.2109176987008499
1.0155853357964812,0.4478325585606342,-0.01760677265814383,0.10568393855269705,-1.133746889248962
1.0119727571466222,0.42687593132373536,-0.01679873829289609,0.09390298751300717,-1.0483634067378798
1.0085403468053988,0.40836841798341084,-0.01589088400446895,0.08235904429963718,-0.954657441466175
1.0053108869000071,0.3922593918877908,-0.01486587699926141,0.07106025184914443,-0.8527160330444954
1.00231139492302,0.3784971086829074,-0.01370071325775913,0.06000911200687358,-0.7429021205112508
0.9995746135283734,0.367030094211529,-0.012363871453160166,0.049200549625277125,-0.6259391413540423
0.9971412789782457,0.35780881389236185,-0.010810743309960041,0.03862116770010984,-0.502978204887303
0.9950637020910862,0.3507871297317351,-0.00897570323441524,0.028252014782070713,-0.37560547523931753
0.993411907651675,0.34592230686962466,-0.006755672379025329,0.018079631523744005,-0.24573221200167722
0.9922864476196198,0.3431703608437857,-0.003962994592929131,0.008129378246166299,-0.11531718477179057
