x,y,v_x,v_y,omega
2.375,32.48,0.0,3.333333333333333,-3.224489795918368
2.3743410058932346,31.886890497778317,-0.007322156741839917,3.256772246907553,-3.023219386767424
2.3724599174426313,31.307290502915034,-0.013578826042639226,3.183227696017812,-2.8407167652501606
2.369535180446608,30.74067398014444,-0.018918251690954766,3.1125114458776943,-2.6747113411277206
2.365720565777884,30.186547349885785,-0.02346635573930958,3.0444511125517777,-2.523257024018644
2.361148855523901,29.644446790271445,-0.027330424860499906,2.9788884387186876,-2.3846795726584493
2.3559349255056854,29.11393582828822,-0.03060213089745442,2.9156778055393797,-2.2575334420368556
2.3501783322415175,28.59460318111175,-0.03336001648218674,2.854684940865815,-2.1405662480376906
2.343965491373478,28.086060815152315,-0.03567154871824909,2.7957857920167917,-2.0326893742190193
2.3373715179676373,27.587942195496865,-0.03759482245776245,2.7388655374882402,-1.9329535560651376
2.3304617859205146,27.099900702616928,-0.03917997806582418,2.6838177167332824,-1.8405285180537196
2.3232932531919848,26.62160819663113,-0.04047038558450795,2.630543460886708,-1.7546859254978249
2.3159155911574167,26.152753712227117,-0.04150363702180138,2.578950810268956,-1.674785059103345
2.3083721495847245,25.69304226968466,-0.042312380452557016,2.52895410686949,-1.6002607350252163
2.3007007832521014,25.242193789394108,-0.04292502324325367,2.4804734519144107,-1.5306130840348064
2.2929345617633454,24.799942098906527,-0.04336632663181711,2.4334342201698154,-1.465398875609453
2.285102380482074,24.36603402294046,-0.04365790982675169,2.387766623897564,-1.4042241304180931
2.277229487530836,23.94022854795169,-0.04381867852034009,2.343405320422141,-1.3467378109390107
2.2693379393575523,23.52229605388189,-0.043865190071698666,2.300289058131159,-1.2926264172206912
2.261446995358145,23.11201760656936,-0.0438119654772724,2.258360356452529,-1.2416093449537657
2.2535734603795095,22.709184305052624,-0.043671756507563594,2.217565215955641,-1.1934348875159129
2.245731982546532,22.31359667864561,-0.04345577496996775,2.177852855233415,-1.1478767836205583
2.2379353127086103,21.92506412922576,-0.04317388989582373,2.13917547165384,-1.104731228538822
2.2301945308433897,21.543404414667574,-0.042834797495518794,2.1014880234371023,-1.063814280278686
2.2225192439542614,21.168443169783664,-0.04244616793924321,2.0647480308285675,-1.0249596031558132
2.214917759326316,20.800013461512417,-0.042014772371258245,2.0289153944075085,-0.9880165003226783
2.2073972364404653,20.437955375423403,-0.041546593027085195,1.993952228803755,-0.9528481943930471
2.199963820369228,20.082115630904493,-0.04104691887555207,1.9598227102952495,-0.9193303215932517
2.192622759075298,19.732347222653893,-0.04052042883478173,1.926492936933669,-0.8873496101203643
2.185378506693192,19.388509086330146,-0.03997126429972568,1.8939307999968065,-0.8568027177762777
2.178234814584998,19.050465786417558,-0.0394030924579885,1.8621058656986345,-0.8275952076266323
2.1711948117151265,18.718087224546352,-0.038819161651693204,1.8309892662036669,-0.7996406435271514
2.164261075679177,18.391248366669586,-0.03822234985885748,1.8005535990937274,-0.7728597899672935
2.15743569554277,18.069828987643945,-0.037615207212328305,1.7707728345244835,-0.7471799028840991
2.1507203274927953,17.753713431891843,-0.03699999334294902,1.7416222293877803,-0.7225340999648958
2.1441162441719186,17.442790388939066,-0.0363787102223487,1.713078247865302,-0.698860800541436
2.137624378454142,17.136952682727333,-0.035753131086279866,1.6851184878206187,-0.6761032265257261
2.1312453623218595,16.83609707369566,-0.0351248259390818,1.65772161253125,-0.6542089569870468
2.124979561420919,16.540124072709872,-0.03449518407136911,1.6308672873108807,-0.6331295299517788
2.118827105797684,16.248937765996537,-0.033865433964572735,1.6045361206150563,-0.6128200858487322
2.112787917259338,15.962445650307583,-0.033236660905937555,1.5787096092622028,-0.5932390477444373
2.10686173374428,15.680558477604723,-0.032609822594708945,1.553370087436239,-0.5743478341334762
2.1010481310422473,15.403190108610357,-0.031985762983431795,1.5285006791678477,-0.5561106005836153
2.0953465421627415,15.130257374623532,-0.03136522456662808,1.5040852540190834,-0.5384940069970329
2.089756274614579,14.861679947046945,-0.030748859301845982,1.4801083857207753,-0.521467007648061
2.084279542104863,14.597380826990737,-0.03010372413944057,1.4565485037926358,-0.5040322198473864
2.0789179451608124,14.337285581427736,-0.029469575238904984,1.4333986691295892,-0.4873270487906639
2.0736694962532214,14.081321622200832,-0.028846523734325506,1.4106453222804565,-0.47131283176515654
2.0685321919785364,13.829418750930458,-0.02823463487328446,1.3882754696125963,-0.4559533407013005
2.063504020794781,13.581509059850095,-0.02763393383511159,1.3662766535025292,-0.4412146043243375
2.0585829697697564,13.337526837839864,-0.027044410887383432,1.3446369243889476,-0.4270647450359005
2.0537670304538116,13.097408481335084,-0.02646602595644516,1.3233448145530595,-0.41347382916421416
2.0490542039766484,12.861092409810098,-0.025898712678703903,1.3023893135023321,-0.40041372936018454
2.0444425054563258,12.628518985558948,-0.025342381991547293,1.2817598448437864,-0.3878579980398728
2.039929967798662,12.399630437514212,-0.0247969253158264,1.2614462445421792,-0.37578175088352755
2.0355146449564177,12.17437078886341,-0.02426221737578028,1.2414387404667475,-0.3641615594990956
2.0311946147098707,11.952685788239002,-0.023738118696959055,1.2217279331377928,-0.352975352445348
2.026967981023522,11.734522844273382,-0.023224477818028444,1.20230477759132,-0.3422023238876732
2.022832876027559,11.519830963324399,-0.022721133248228227,1.1831605662862628,-0.3318228492292775
2.018787461667341,11.30856069019002,-0.02222791519863894,1.1642869129846087,-0.3218184071229285
2.014829931059363,11.100664051642802,-0.021744647112222987,1.1456757375400233,-0.3121715073243139
2.010958509587932,10.896094502626013,-0.02127114701479492,1.1273192515353996,-0.3028656238982839
2.0071714557730065,10.69480687496355,-0.02080722870659381,1.1092099447141988,-0.2938851333343371
2.003467061936339,10.49675732844537,-0.020352702811938222,1.0913405721544966,-0.2852152571682657
1.9998436546900389,10.301903304159008,-0.019907377702505624,1.0737041421383875,-0.27684200874338166
1.9962995952690878,10.110203479946001,-0.019471060308062515,1.0562939046728106,-0.2687521437776448
1.9928332797269364,9.921617727869556,-0.019043556826952288,1.0391033406210144,-0.2609331144326899
1.9894431390112537,9.736107073587057,-0.01862467334730115,1.0221261514067643,-0.2533730266075463
1.9861276389350127,9.553633657527403,-0.018214216388708085,1.005356249256066,-0.2460606002040592
1.9828852800564478,9.37416069777943,-0.017811993373124578,0.9887877479436258,-0.2389851321329325
1.9797178910047668,9.197873372198202,-0.01738121831221985,0.9699603140700247,-0.2807540841490749
1.9766242248022377,9.02496595496769,-0.01699285060476985,0.9512332107134602,-0.3235983957666533
1.9735967754420998,8.855420608555043,-0.016645475618984162,0.9326039716492895,-0.36742054188075984
1.9706282926544183,8.68921993082163,-0.016337666466365783,0.9140702253886265,-0.41212418502101217
1.9677117838836966,8.526346938167471,-0.016067986541653485,0.895629692990922,-0.45761396256261655
1.964840515836677,8.366785049039215,-0.01583499175856235,0.8772801862119316,-0.5037952739354109
1.962008015653627,8.210518067741042,-0.01563723249755019,0.8590196059900067,-0.5505740668752058
1.9592080717537022,8.057530168487062,-0.015473255279392478,0.8408459412764465,-0.597856621728571
1.9564347344027235,7.907805879632502,-0.015341604175926815,0.8227572682186604,-0.6455493327804981
1.9536823160498686,7.761330068019088,-0.015240821966904844,0.8047517497081541,-0.6935584855234542
1.9509453914783976,7.6180879233675505,-0.015169451049439588,0.7868276353089231,-0.7417900287254586
1.9482187978145853,7.478064942647027,-0.015126034104031285,0.7689832615857743,-0.7901493400830745
1.9454976344385515,7.341246914347224,-0.015109114518565841,0.7512170528564779,-0.8385409841616099
1.9427772628406728,7.207619902574454,-0.015117236568974695,0.7335275223965385,-0.8868684612282183
1.94005330646775,7.077170230886985,-0.015148945352388298,0.715913274130888,-0.9350339454726924
1.937321650604134,6.949884465778432,-0.015202786465568888,0.6983730048530192,-0.9829380109841614
1.9345784423346013,6.825749399709938,-0.015277305418129156,0.6809055070191524,-1.030479343708042
1.931820090637986,6.704752033582636,-0.015371046766483902,0.6635096721730802,-1.0775544374448158
1.9290432666634496,6.58687955853107,-0.015482552950588731,0.6461844950665483,-1.1240572717687183
1.9262449042448855,6.4721193369055285,-0.015610362811232912,0.6289290785505949,-1.1698789695383993
1.923422200713393,6.360458882296687,-0.01575300976090519,0.6117426393254134,-1.2149074314412724
1.9205726180730749,6.251885838438874,-0.015909019575964703,0.5946245146502818,-1.2590269447569253
1.9176938846117637,6.146387956808539,-0.01607690777193696,0.5775741701312238,-1.302117763241288
1.9147839970257488,6.0439530727116875,-0.01625517651711787,0.5605912087226665,-1.344055654721493
1.9118412231463107,5.944569079627573,-0.016442311032193093,0.5436753811008328,-1.38471141265174
1.9088641053660511,5.848223901545275,-0.016636775415135155,0.526826597591386,-1.4239503275147822
1.9058514648747922,5.754905462994433,-0.016837007821075667,0.5100449418624089,-1.461631613566118
1.9028024068284564,5.664601656430417,-0.01704141491598917,0.4933306866266654,-1.4976077860164165
1.8997163265900578,5.577300306586885,-0.01724836551066207,0.4766843116347835,-1.5317239833454726
1.8965929172000404,5.492989131354193,-0.017456183267308904,0.4601065242840295,-1.563817229059373
1.8934321782540289,5.41165569867918,-0.017663138355041307,0.4435982832161246,-1.5937156268747197
1.890234426390011,5.333287378909819,-0.017867437911822905,0.42716082533233074,-1.6212374830900809
1.8870003076145292,5.257871291925589,-0.01806721514908742,0.41079569671466687,-1.6461903498609596
1.8837308117291895,5.185394248300561,-0.018260516910240564,0.3945047880078576,-1.668369983342876
1.8804272891554203,5.115842683640146,-0.018445289464972495,0.37829037488563805,-1.6875592113738214
1.877091470497788,5.049202585113996,-0.018619362286499047,0.36215516429380323,-1.7035267067770463
1.8737254892354898,4.985459409077343,-0.0187804295168134,0.3461023472245696,-1.7160256648376506
1.8703319079893892,4.924597988533179,-0.018926028773193757,0.3301356588217035,-1.7247923875703197
1.8669137488802765,4.866602429042899,-0.01905351688361383,0.3142594466258594,-1.7295447838277336
1.8634745285759728,4.811455991552105,-0.019160042053095145,0.29847874771631117,-1.7299808042426075
1.860018298724928,4.759140960476703,-0.0192425118474016,0.282799375343715,-1.725776845134334
1.856549692598998,4.70963849531805,-0.019297556218490164,0.26722801530797247,-1.7165861783253575
1.8530739789288508,4.662928464086843,-0.019321484560920834,0.2517723317054193,-1.7020374979623438
1.8495971241291902,4.618989256981141,-0.019310235435307067,0.23644108058016594,-1.6817337263148873
1.8461258644056038,4.577797579190499,-0.019259317048987583,0.22124422820476108,-1.6552512960495824
1.842667789656463,4.539328222550857,-0.01916373571924398,0.20619306779126562,-1.6221402382034724
1.8392314417085018,4.503553817306763,-0.019017908146990448,0.19130032380979012,-1.581925569647603
1.8358264303819896,4.470444567830896,-0.018815551036478296,0.17658022592205805,-1.5341107146470538
1.8324635723872396,4.439967980368593,-0.018549537794077982,0.16204852365909142,-1.4781840437290605
1.8291550604740348,4.412088597516153,-0.0182117056859738,0.14772239692358674,-1.4136301084941032
1.8259146742057974,4.386767764270093,-0.017792586183332463,0.13362019469929562,-1.3399478326871173
1.8227580502451453,4.363963465344362,-0.017281013379466834,0.11976090447549549,-1.256678803539201
1.81970304083463,4.343630294060272,-0.01666353562625874,0.10616322090327879,-1.1634498205839294
1.816770207047683,4.325719639050977,-0.015923506450930335,0.09284405697779341,-1.0600346893222048
1.8139835229097159,4.310180201478953,-0.01503965063759395,0.07981636048911932,-0.9464400266261596
1.8113714150431293,4.296958966941585,-0.013983770102256883,0.06708624548163716,-0.8230166084377464
1.8089683433047876,4.286002715097908,-0.012717026990427505,0.054649886114780374,-0.6905878886047703
1.8068172715968587,4.277259979929028,-0.011183769764339017,0.04249161576164917,-0.5505659227167448
1.8049736846472275,4.270682939219469,-0.009300529676006662,0.030586614344567612,-0.4049906650378612
1.8035126988462484,4.266227746112609,-0.006932645890428879,0.018915531287206473,-0.2563946939942612
1.8025446234428828,4.263849152137368,-0.003823747480298262,0.007513290659910429,-0.10739695305022975
