x,y,v_x,v_y,omega
2.375,32.48,0.0,3.5384615384615383,-6.775510204081632
2.373373760483499,31.816182232070354,-0.01711831070001377,3.4490939134294463,-6.305441460351452
2.368753284530656,31.168959374686377,-0.03151827827727996,3.36377826955979,-5.884501540694293
2.361615526145863,30.537589992939292,-0.04361602051001462,3.2822152225147705,-5.506053013993861
2.352364966181946,29.921386524211457,-0.053758294899633366,3.204137079883507,-5.164520323071263
2.341345573871485,29.31970969310076,-0.062235308368377804,3.129303247597509,-4.855195554860582
2.3288505842005445,28.731963717331148,-0.06929089869415424,3.057496497345765,-4.574084135345103
2.315130533563518,28.157592159630568,-0.07513068695875394,2.9885198995024433,-4.3177813198411465
2.3003998966840977,27.596074312868883,-0.07992864861409636,2.922194276936349,-4.083372654496936
2.2848425931189458,27.04692202978342,-0.0838324415453979,2.8583560713316754,-3.868353251706834
2.2686165749514995,26.509676926723042,-0.08696774969087843,2.7968555398302177,-3.6705619430332868
2.2518576637714465,25.98390790464024,-0.08944184167809807,2.7375552189361017,-3.488127278003001
2.234682771344102,25.469208941198644,-0.09134649966236852,2.6803286067649275,-3.319423014795031
2.217192612072981,24.965197116153654,-0.09276044003364373,2.6250590252875785,-3.163031261296392
2.19947399467586,24.47151083869219,-0.09375132204131573,2.571638632201535,-3.0177118159589846
2.1816017641210106,23.987808250608417,-0.09437742064131163,2.5199675581539562,-2.8823765585696464
2.16364045182942,23.51376578335897,-0.09468902453332144,2.469953149734971,-2.7560679740103096
2.1456456817045466,23.049076850414565,-0.0947296083600848,2.421509302311411,-2.6379410738256306
2.1276653711435545,22.593450659079373,-0.09453681859772585,2.3745558696379603,-2.5272481230963395
2.1097407593837945,22.14661112821575,-0.09414330518922213,2.3290181394528204,-2.4233256927956335
2.0919072900138342,21.708295900190357,-0.09357742502088845,2.2848263660776196,-2.3255836472836084
2.074195369971787,21.278255436925466,-0.09286383857960731,2.241915352500185,-2.233495748016509
2.0566310236631518,20.856252191255777,-0.09202401730076129,2.2002240756018137,-2.1465916118348787
2.039236457797044,20.4420598459037,-0.09107667602668874,2.1596953491569195,-2.064449808356067
2.022030550037897,20.035462613331184,-0.0900381424906492,2.1202755200274623,-1.9866919183547707
2.005029272499494,19.636254590533525,-0.0889226737030674,2.0819141936320964,-1.912977405374043
1.9882460593897378,19.244239163533315,-0.08774272745226082,2.0445639853174473,-1.842999177577009
1.971692126683837,18.859228456930012,-0.08650919576774847,2.008180294717347,-1.776479737131769
1.9553767505089963,18.481042824377546,-0.08523160607268046,1.9727211005717784,-1.7131678310906495
1.9393075099235362,18.10951037631186,-0.0839182948268986,1.9381467738038298,-1.6528355314709164
1.9234904989337742,17.744466541642097,-0.08257655769691291,1.9044199069305427,-1.5952756836171786
1.9079305118854157,17.385753660462235,-0.08121277965422972,1.871505158120602,-1.5402996713654205
1.8926312057701078,17.03322060514135,-0.07983254787532718,1.8393691084150754,-1.4877354553875053
1.8775952424837277,16.68672242741569,-0.07844074987604156,1.8079801308024084,-1.437425847657079
1.8628244136457544,16.3461200293404,-0.07704165894472922,1.7773082699900793,-1.3892269904726362
1.8483197502261803,16.011279856165935,-0.0756390086297336,1.7473251318464291,-1.34300701308732
1.8340816189175249,15.682073609388503,-0.07423605777716731,1.718003781600227,-1.2986448428793576
1.8201098069260322,15.3583779783879,-0.07283564739643812,1.689318649985058,-1.2560291512756698
1.8064035966309593,15.040074389212062,-0.07144025044643658,1.6612454466027096,-1.215057417415461
1.7929618313680225,14.727048769198468,-0.07005201547921469,1.6337610798561655,-1.1756350948938072
1.7797829734276587,14.419191326239478,-0.06867280494566562,1.6068435828700658,-1.1376748689259968
1.7668651552165655,14.116396341603622,-0.06730422885531533,1.5804720448757952,-1.1010959929783284
1.7542062244085765,13.818561975319295,-0.0659476743866722,1.5546265475908037,-1.0658236953672093
1.7418037838053575,13.525590083212187,-0.06460433196300193,1.5292881061682186,-1.0317886475747107
1.729655226536196,13.23738604476447,-0.06327521823869921,1.5044386143340598,-0.9989264870977141
1.7177577671472508,12.953858601032959,-0.06196119638177656,1.480060793366066,-0.9671773885665537
1.7061180900846233,12.674922155006232,-0.06056172006693212,1.4561123227047308,-0.9336811007627656
1.6947415355495945,12.400494027476341,-0.05919148556495208,1.432604809188854,-0.9016466318324772
1.6836225641468698,12.130491878002555,-0.05785031867425643,1.4095230800088887,-0.8709933920129859
1.6727556763692366,11.864836185829297,-0.05653797372188195,1.3868526270780492,-0.8416460758067335
1.6621354251475344,11.60345012708201,-0.05525414440129858,1.3645795702618184,-0.813534260136331
1.651756426468411,11.34625945871926,-0.053998473273683546,1.3426906230302988,-0.7865920371493048
1.6416133682984428,11.093192408798377,-0.05277056009440355,1.321173060347407,-0.760757678338676
1.6317010180243747,10.844179572645789,-0.05156996910631398,1.3000146886272097,-0.7359733269989094
1.6220142285939985,10.59915381455398,-0.05039623542396312,1.279203817602382,-0.7121847163493271
1.6125479435200565,10.358050174655265,-0.04924887061753163,1.2587292339630245,-0.6893409109338909
1.6032972008901476,10.12080578064835,-0.04812736759203576,1.2385801766360593,-0.6673940691517366
1.5942571365085612,9.887359764077228,-0.047031204845713694,1.2187463135862673,-0.6462992249908313
1.585422986280988,9.657653180883699,-0.04595985018137275,1.1992177200298486,-0.6260140872309521
1.5767900879398753,9.431628935974633,-0.04491276393560577,1.179984857960309,-0.6064988545547473
1.5683538821966057,9.209231711563419,-0.04388940178302186,1.16103855689456,-0.5877160451594644
1.5601099133964642,8.990407899061758,-0.042889217165834194,1.1423699957544882,-0.5696303395992183
1.5520538297433575,8.775105534313518,-0.04191166339318269,1.1239706858059428,-0.5522084357103427
1.5441813831533184,8.56327423597655,-0.04095619544933341,1.1058324545831997,-0.5354189145821149
1.5364884287888287,8.354865146871557,-0.04002227154529724,1.0879474307325245,-0.5192321166334295
1.5289709243198106,8.14983087812918,-0.03910935444436652,1.0703080297135463,-0.503620026944128
1.5216249289516872,7.948125455977721,-0.03821691258851039,1.0529069403017959,-0.4885561690687927
1.5144466022560823,7.74970427102425,-0.03734442104943669,1.0357371118400207,-0.47401550663189684
1.5074322028354759,7.554524029891418,-0.03649136232536743,1.0187917421897768,-0.4599743520671407
1.5005780868493626,7.362542709081243,-0.03565722700214067,1.0020642663383692,-0.44641028192137744
1.4938807064261244,7.173719510945247,-0.03484151429510337,0.9855483456194877,-0.43330205819542833
1.4873438920601152,6.988223153499423,-0.033967057978676024,0.9670448906523472,-0.4644677277975823
1.4809684167221644,6.806232272804216,-0.03314320873659707,0.9486485903498229,-0.49705659866227697
1.4747448141157462,6.627726772872403,-0.032368397646753415,0.930356672090318,-0.5309608508258169
1.4686639175891574,6.452687074061721,-0.03164103947523159,0.9121664732852962,-0.5660746341450077
1.462716862917584,6.281094092487308,-0.03095953601501532,0.8940754380243181,-0.6022938288191642
1.4568950904856703,6.112929220034815,-0.03032227905776007,0.8760811141071786,-0.6395158092002001
1.4511903469380305,5.948174304901077,-0.0297276530226609,0.8581811504584682,-0.6776392098622535
1.4455946863608276,5.78681163258986,-0.029174037263685483,0.8403732949227469,-0.7165636928942193
1.4401004710537668,5.628823907290258,-0.02865980807379474,0.8226553924414943,-0.7561897153623056
1.4347003719485478,5.474194233564784,-0.02818334040219489,0.8050253836161295,-0.7964182958649517
1.4293873687270167,5.322906098273105,-0.027743009298133336,0.7874813036647201,-0.837150779068727
1.4241547496899312,5.174943352655518,-0.027337191092241697,0.7700212817835741,-0.8782885970706292
1.418996111425396,5.030290194497844,-0.026964264323917114,0.752643540928782,-0.9197330263788976
1.4139053583246581,4.8889311502960915,-0.026622610420690897,0.7353463980370214,-0.9613849392403275
1.4088767019920638,4.750851057335161,-0.026310614132933327,0.7181282647096116,-1.003144547966276
1.4039046605956025,4.616035045590792,-0.026026663724554557,0.700987648389006,-1.0449111408211682
1.3989840582046025,4.484468519357879,-0.02576915091755132,0.6839231540627184,-1.0865828079353037
1.3941100241618334,4.35613713850098,-0.025536470585282012,0.6669334865362095,-1.1280561555870257
1.3892779925385437,4.231026799214295,-0.025327020186189153,0.6500174533236318,-1.1692260070666614
1.3844837017228586,4.109123614168251,-0.0251391989262854,0.6331739682136898,-1.209985088184868
1.3797231941945336,3.9904138919081014,-0.024971406635028875,0.6164020555773748,-1.2502236953199328
1.3749928165423637,3.8748841153562097,-0.024822042335182003,0.5997008554951735,-1.289829343711094
1.370289219784654,3.762520919253763,-0.02468950248281524,0.5830696297937299,-1.3286863934972186
1.3656093600581585,3.653311066359226,-0.024572178848714838,0.5665077690961167,-1.366675650771733
1.360950499746865,3.547241422199516,-0.024468456007005503,0.5500148010060957,-1.4036739406757668
1.3563102091290815,3.44429892814523,-0.02437670839071647,0.533590399565343,-1.4395536492833065
1.3516863686295792,3.3444705725528507,-0.02429529686720242,0.5172343961438972,-1.4741822307475996
1.3470771717732222,3.2477433596840797,-0.02422256477866232,0.5009467919484192,-1.5074216758823176
1.3424811289477367,3.1541042760747224,-0.0241568333843432,0.484727772360602,-1.5391279380528018
1.337897072096259,3.0635402539822536,-0.024096396631210094,0.4685777233495795,-1.569150311965826
1.3333241604752664,2.9760381314914532,-0.024039515168713145,0.45249725023777526,-1.5973307606919118
1.3287618876307365,2.8915846088006134,-0.02398440951054691,0.4364871991394973,-1.6235031860640727
1.3242100897652258,2.810166200145968,-0.023929252231672152,0.42054868143570856,-1.6474926375180983
1.3196689556913808,2.7317691807484152,-0.02387215907196093,0.4046831016964207,-1.6691144545412653
1.3151390385937247,2.6563795280835123,-0.02381117879810231,0.3888921895130863,-1.688173338279649
1.310621269850952,2.5839828566830185,-0.023744281652135334,0.3731780357552573,-1.7044623486657147
1.3061169752062236,2.514564345573831,-0.023669346187112132,0.35754313381514075,-1.717761824880366
1.3016278936140897,2.4481086573491524,-0.023584144256403466,0.34199042644461447,-1.7278382293653987
1.2971561991410614,2.3845998477497616,-0.023486323880735748,0.3265233588121296,-1.7344429193999045
1.2927045263544394,2.3240212645149576,-0.023373389662653423,0.3111459383963409,-1.7373108560949713
1.2882759997035975,2.2663554341521213,-0.023242680346207956,0.2958628022651109,-1.7361592694841717
1.283874267483662,2.2115839351850433,-0.02309134302153476,0.280679292125192,-1.7306863115567708
1.2795035410797364,2.1596872563980476,-0.022916303335578092,0.2656015372116117,-1.7205697485782465
1.2751686403303106,2.110644638632756,-0.0227142308689048,0.250636544528288,-1.7054657727483298
1.2708750460367115,2.0644338988757767,-0.02248149853740215,0.23579229501887258,-1.685008055337983
1.266628960906121,2.0210312357888434,-0.02221413441618312,0.22107784273833606,-1.6588072249606987
1.2624373805887332,1.9804110166159319,-0.021907763661582404,0.20650341171337763,-1.626451044227745
1.2583081770200812,1.9425455467616572,-0.02155753706106948,0.19208048148949933,-1.5875056879549028
1.2542501971139908,1.9074048255788334,-0.021158040897778486,0.17782184675076684,-1.5415187132223358
1.2502733811452549,1.8749562954738828,-0.02070317982575705,0.16374162803819342,-1.4880245782301154
1.2463889072024137,1.8451645969556942,-0.02018601957257044,0.14985519846903925,-1.4265539400008642
1.2426093713537736,1.8179913505267393,-0.019598568307851255,0.13617897446733374,-1.3566484670959518
1.2389490184275096,1.793394998284242,-0.018931462494926745,0.12272999650631787,-1.2778835526498475
1.2354240468081867,1.7713307545481527,-0.018173501918997755,0.10952520071566202,-1.1899020574158494
1.2320530243815484,1.751750735583503,-0.017310944677196384,0.09658026207013284,-1.0924628527222904
1.2288574748157877,1.7346043604717103,-0.01632641917291642,0.0839078970013773,-0.9855079274183461
1.2258627285841313,1.7198391284190677,-0.015197225370834708,0.07151559828957944,-0.8692499578115562
1.223099189571675,1.707401858034153,-0.013892658970810524,0.05940303734111642,-0.74427623809201
1.220604262518848,1.697240372061561,-0.012369731058945913,0.04755997289670645,-0.6116514749389629
1.2184253676582433,1.6893053401557623,-0.010566004315840077,0.03596667874329358,-0.4729790823205873
1.2166249209041895,1.6835514045729418,-0.008386066779463628,0.024601064233753175,-0.3303536367065947
1.2152897272668595,1.6799353883851573,-0.005668603087168173,0.013462264058713142,-0.18612574243509297
1.2145555250837075,1.6784042982995722,-0.0020598409460097448,0.0026544736842953522,-0.04244222717986132
