x,y,v_x,v_y,omega
2.375,32.48,0.0,3.4871794871794872,-7.755102040816326
2.3722939729132735,31.68972657804359,-0.02353067031935977,3.3847633124414376,-7.119550799730428
2.3646768953963124,30.92236465229893,-0.04270478634986661,3.2879490853382185,-6.563060964829307
2.3530608023439057,30.176683388238594,-0.05830471845367115,3.196235819534266,-6.073013993750538
2.3381953940967377,29.451559674983812,-0.07095970108692103,3.109187773985561,-5.639169386600455
2.3206994320772445,28.74596446263004,-0.08117909908258308,3.0264227682211606,-5.253152649166821
2.3010854090182478,28.058951479303552,-0.08937762316956475,2.9476031737483304,-4.908067184388069
2.279779095762725,27.38964779629977,-0.09589466600889304,2.8724288523715034,-4.598196735182708
2.2571351420636327,26.737245851604133,-0.10100927920060487,2.800631536286215,-4.318774923676826
2.233449609184776,26.10099664114723,-0.10495187626771153,2.7319702937738057,-4.065805124863942
2.20897009681698,25.480203857474333,-0.10791344866964658,2.6662278251209455,-3.8359185169347976
2.1839039697154865,24.8742188062711,-0.11005287395203915,2.603207402733282,-3.6262613733404128
2.1584250732523818,24.282435968401455,-0.11150274746626056,2.5427303178723086,-3.4344049527007154
2.132679240094121,23.704289102802136,-0.11237406260557271,2.4846337308174293,-3.25827299397609
2.1067888244266446,23.139247806469793,-0.1127599866768298,2.4287688459855348,-3.0960830293426214
2.080856449932945,22.58681446375009,-0.1127389219640357,2.3749993515770975,-2.9462986164242997
2.0549681190779525,22.046521529504513,-0.11237699851416173,2.3232000766453154,-2.807590254361024
2.029195801287045,21.517929100417817,-0.11173011271112154,2.2732558284563797,-2.67880324682593
2.0035995942102374,21.00062273638104,-0.1108456010002497,2.225060380559103,-2.558931153387922
1.978229533889102,20.494211500023848,-0.10976361918353474,2.1785155877642817,-2.4470937598211173
1.9531271151287717,19.998326187429253,-0.1085182830802071,2.1335306087104526,-2.3425187206534845
1.9283265718515763,19.512617727105273,-0.10713861498236091,2.090021220193703,-2.2445261998624284
1.9038559580116037,19.036755727609528,-0.10564933145218422,2.047909210204097,-2.152515970256992
1.879738062276581,18.570427156972354,-0.10407150102627405,2.0071218388148084,-2.0659565377042606
1.8559911837475545,18.1133351393569,-0.10242309487830532,1.9675913578413196,-1.9843759396678857
1.8326297911883165,17.665197856318464,-0.10071944911506654,1.9292545816233335,-1.9073539335806737
1.8096650843424813,17.22574754164959,-0.0989736538921958,1.8920525024538224,-1.834515343201679
1.787105472744424,16.794729560175952,-0.0971968817430858,1.8559299451430353,-1.7655243732348875
1.7649569848379598,16.37190156204421,-0.09539866526964506,1.8208352560025434,-1.700079736356348
1.7432236180907155,15.957032705051127,-0.09358713253247931,1.7867200221981985,-1.6379104641429807
1.7219076390431562,15.549902938431014,-0.09176920701151528,1.7535388179767075,-1.578772295564985
1.7010098407879402,15.150302342268777,-0.08995077781645205,1.7212489747383954,-1.5224445547448162
1.680529764180729,14.758030517356541,-0.08813684485494798,1.6898103723245221,-1.4687274444222846
1.6604658880921375,14.372896020878478,-0.08633164287193648,1.6591852492238568,-1.4174396936458458
1.6408157931853704,13.994715843803355,-0.08453874762168874,1.6293380296902678,-1.3684165081474664
1.6215763030156078,13.623314926297933,-0.082761166897987,1.6002351660090528,-1.3215077800600123
1.602743605671228,13.258525707855345,-0.0810014187053132,1.5718449943612882,-1.2765765204268293
1.58431335869401,12.900187709168218,-0.07926159848788955,1.5441376029180662,-1.2334974835932533
1.5662807796094822,12.54814714307286,-0.07754343702974197,1.5170847109546053,-1.1921559572682414
1.5486407240566242,12.202256552153251,-0.07584835038641427,1.490659557911563,-1.1524466959697655
1.5314178254949549,11.862379076704443,-0.07391598493245019,1.4647967503389419,-1.1066945124062004
1.5146338722944628,11.528383191404068,-0.07203143420226416,1.4395152957512625,-1.0632783602427054
1.498277908008827,11.200137833949228,-0.07019434219456676,1.414792160377777,-1.0220487246621772
1.4823390754057528,10.877517103721935,-0.06840420217999169,1.3906054937725987,-0.982867479641582
1.4668066480696633,10.56039999839603,-0.0666603833512216,1.3669345525396146,-0.9456068837425882
1.4516700563115776,10.248670167411888,-0.06496215367561282,1.34375962993118,-0.9101486761813982
1.4369189081987095,9.942215681028557,-0.06330869947976052,1.3210619907934367,-0.8763832620188617
1.4225430064032758,9.640928813778018,-0.06169914221966335,1.2988238113851716,-0.8442089766783201
1.4085323614730614,9.344705841249553,-0.06013255282568018,1.2770281236449497,-0.8135314211827389
1.394877202043105,9.053446849225168,-0.05860796395654755,1.2556587635236216,-0.7842628605308156
1.3815679824363674,8.767055554270705,-0.057124380449865876,1.2347003230369344,-0.7563216785260797
1.3685953880397441,8.48543913496292,-0.055680788216424866,1.2141381057264233,-0.7296318831523797
1.3559503387888345,8.208508073001024,-0.0542761617914843,1.1939580852465799,-0.7041226572695185
1.3436239910492338,7.936176003513033,-0.05290947072678271,1.1741468668228976,-0.679727949997764
1.3316077381427378,7.668359573923244,-0.051579684981877656,1.154691651349174,-0.6563861046811076
1.319893209732864,7.404978310798008,-0.0502857794518074,1.135580201913752,-0.6340395197763673
1.3084722702547156,7.145954494133129,-0.04902673774948192,1.1168008125634687,-0.6126343394170152
1.2973370165488252,6.891213038588237,-0.04780155534521767,1.0983422791312376,-0.5921201707542109
1.2864797748366392,6.640681381211756,-0.04660924215205071,1.0801938719686017,-0.5724498254891995
1.2758930971562918,6.394289375234941,-0.04544882463357838,1.06234531043849,-0.5535790832863501
1.265569757360836,6.151969189545383,-0.04431934750081955,1.044786739035927,-0.5354664749993092
1.2555027467668343,5.913655213479441,-0.04321987505571797,1.0275087050157599,-0.5180730838580337
1.2456852695288334,5.679283966599709,-0.042149492231246186,1.01050213741668,-0.5013623629553003
1.2361107378045255,5.448794013148081,-0.04110730537143058,0.9937583273800781,-0.48529996754068183
1.2267818336496752,5.222231589172004,-0.040013600322920666,0.9763497071945038,-0.4884809037984435
1.2176994116989348,4.999658022880219,-0.0389639818574305,0.9590726083862261,-0.494202416377665
1.2088533656867233,4.781043525535964,-0.03795815737919177,0.9419230206942457,-0.5023257990254677
1.2002336702111005,4.566359211186356,-0.03699571632187529,0.9248971040849612,-0.5127170948877257
1.1918304065507397,4.355577058474502,-0.03607614159430661,0.9079911803659422,-0.525246755882045
1.1836337859601118,4.148669874307622,-0.03519882006332741,0.891201725433021,-0.5397893173997316
1.1756341706557576,3.9456112592397545,-0.03436305214844937,0.8745253621136583,-0.5562230868539452
1.1678220926900615,3.746375574435728,-0.03356806059673426,0.8579588535735211,-0.5744298446697805
1.1601882708938687,3.550937910090223,-0.03281299850059422,0.8414990972569657,-0.5942945563799179
1.152723626055473,3.3592740551820697,-0.03209695661589052,0.8251431193356829,-0.6157050945473294
1.1454192944908763,3.1713604684494996,-0.031418970032775086,0.8088880696431817,-0.6385519692847796
1.1382666401486878,2.9871742504767838,-0.0307780242471246,0.7927312170760895,-0.6627280661798833
1.131257265382514,2.8066931167866898,-0.03017306067612586,0.7766699454464707,-0.6881283904645297
1.1243830205141416,2.6298953718365006,-0.029602981657547114,0.7607017497725539,-0.7146498162887185
1.1176360123021531,2.4567598838178384,-0.029066654968440502,0.7448242329984339,-0.7421908399713291
1.1110086114228077,2.2872660601623167,-0.02856291789543374,0.7290351031365347,-0.7706513361040329
1.104493459063017,2.1213938236561773,-0.028090580885353926,0.7133321708299071,-0.7999323153793247
1.0980834727190112,1.9591235890672323,-0.02764843080165337,0.6977133473348462,-0.8299356829992668
1.0917718512887922,1.8004362401870182,-0.027235233808947136,0.682176642927894,-0.86056399649768
1.0855520795417004,1.6453131071896259,-0.026849737904894967,0.6667201657450837,-0.8917202217747633
1.0794179320443391,1.4937359442064242,-0.026490675115637154,0.6513421210653628,-0.92330748609894
1.0733634766187214,1.3456869070126345,-0.02615676336799399,0.6360408110545424,-0.9552288267755062
1.0673830774058097,1.2011485307174006,-0.025846708048630353,0.6208146349909572,-0.9873869341146625
1.0614713976056234,1.0601037073435151,-0.025559203257337706,0.60566208999935,-1.0196838872519267
1.0556234019638067,0.9225356631761663,-0.025292932758460084,0.5905817723254184,-1.0520208812808742
1.0498343590739898,0.7884279357518835,-0.025046570631251125,0.5755723791900927,-1.0842979440506342
1.044099843565492,0.6577643503489661,-0.024818781616554975,0.560632711270063,-1.1164136408576253
1.038415738246923,0.5305289958290658,-0.024608221153610634,0.5457616758594972,-1.1482647651216178
1.03277823627811,0.40670619966581967,-0.02441353509693792,0.5309582907774425,-1.1797460129794612
1.0271838434455633,0.28628050198034316,-0.024233359099119594,0.5162216890962625,-1.2107496395549766
1.021629380620474,0.16923662838470221,-0.024066317640787597,0.5015511247788542,-1.2411650944701766
1.0161119864831023,0.055559461412585165,-0.023911022684183488,0.4869459793265267,-1.2708786339512874
1.0106291206034812,-0.054765989708855045,-0.023766071921216953,0.47240576955559055,-1.2997729066540094
1.0051785669757374,-0.16175462122125595,-0.023630046580903286,0.4579301566391705,-1.327726510088425
0.9997584381121869,-0.26542126924051956,-0.023501508754318952,0.44351895657183965,-1.3546135142692275
0.9943671798138598,-0.3657807467537282,-0.023378998187655247,0.4291721522386822,-1.3803029489587673
0.9890035767464547,-0.4628478836004035,-0.02326102848543236,0.41488990729765146,-1.4046582506202627
0.9836667589651564,-0.5566375698828452,-0.02314608265629064,0.40067258211485685,-1.4275366649740668
0.9783562095485618,-0.6471648033091455,-0.02303260792279334,0.38652075202688685,-1.4487886008777036
0.97307177352147,-0.7344447410401216,-0.022919009704092205,0.3724352282424533,-1.468256931169897
0.9678136682689344,-0.8184927566877889,-0.022803644665781414,0.3584170817372496,-1.4857762361879268
0.9625824956702207,-0.8993245031996935,-0.02268481271433871,0.34446767054016064,-1.5011719859708659
0.9573792562118086,-0.9769559824600478,-0.02256074779359254,0.33058867085425075,-1.5142596578214238
0.952205365374118,-1.0514036225457204,-0.02242960731676119,0.3167821124994237,-1.5248437870943548
0.9470626726282665,-1.1226843636911994,-0.022289460038469364,0.3030504192004091,-1.5327169510676655
0.9419534834283416,-1.1908157541398126,-0.022138272134790273,0.2893964542658212,-1.537658688907802
0.9368805846433716,-1.2558160571832317,-0.021973891212775605,0.27582357219870673,-1.5394343656029275
0.9318472739443169,-1.3177043708096008,-0.021794027909438872,0.26233567672621816,-1.537793995094376
0.9268573937492499,-1.3765007614776508,-0.02159623465636172,0.24893728560467987,-1.532471048824924
0.9219153704409244,-1.4322264135865055,-0.02137788106820833,0.23563360229839886,-1.5231812921988663
0.9170262597151966,-1.4849037961806957,-0.02113612524246783,0.22243059417283959,-1.5096217154173117
0.9121957991119836,-1.5345568482591005,-0.02086788000286292,0.20933507607412882,-1.4914696603000366
0.9074304690477406,-1.5812111836534655,-0.02056977272968413,0.19635479692034913,-1.4683822960734882
0.902737564050204,-1.624894315669465,-0.020238096814113274,0.1834985249578807,-1.4399966719272324
0.898125276457959,-1.6656359003314236,-0.0198687518141038,0.17077612427656869,-1.4059306826659006
0.8936027956963914,-1.703467994832728,-0.019457167851701675,0.15819861051736375,-1.365785440196497
0.8891804275533697,-1.7384253242183618,-0.01899820730501013,0.1457781667490451,-1.3191497667340057
0.8848697399409053,-1.7705455437869588,-0.018486032803375938,0.13352809036917637,-1.2656078385931375
0.8806837449153881,-1.7998694763655578,-0.017913923940251073,0.12146262770557206,-1.2047514358939084
0.8766371320081805,-1.826441291499961,-0.017274014383294272,0.10959663433269856,-1.1361988052699155
0.8727465764300659,-1.8503085768395096,-0.016556903687267293,0.09794497731555703,-1.0596227876005921
0.8690311594228557,-1.8715222305612684,-0.015751070288473768,0.08652157678671685,-0.9747914507711637
0.8655129599987499,-1.8901360802471316,-0.014841968182012293,0.07533798569906862,-0.8816245777158942
0.8622179122654527,-1.9062061174514469,-0.013810620803180913,0.06440146825150081,-0.7802680308481463
0.8591770782082084,-1.9197892513144765,-0.0126314144772036,0.053712739253106274,-0.6711833957367557
0.8564285776159293,-1.9309415767825868,-0.0112685906730492,0.04326400394785974,-0.5552396278374166
0.8540205879744869,-1.939716408568401,-0.009670449687319156,0.033038881146176584,-0.4337745126475515
0.8520162370568392,-1.9461628942491203,-0.007758688727009386,0.023017516077457355,-0.3085699814860449
0.8505025712492265,-1.9503272526613245,-0.005403622643535905,0.013194296202609377,-0.18167211418567691
0.8496124616078626,-1.9522629019870124,-0.0023364611944100577,0.003637437064263227,-0.055011459038315
