x,y,v_x,v_y,omega
2.375,32.48,0.0,3.1794871794871797,-6.285714285714286
2.373006293771893,31.758655340539686,-0.017336575896579776,3.093075076689448,-5.813280223486522
2.367366460243514,31.05669457594284,-0.03170545478498102,3.0109315719787784,-5.394473317238145
2.3587066526241443,30.373175360598474,-0.04359722016605967,2.932713778841782,-5.021452459742219
2.347550338247523,29.707229662689883,-0.053414209195863066,2.8581183768850926,-4.6877314651179685
2.3343365742516036,29.058055382899262,-0.061488086420827884,2.7868753604246734,-4.387911753520143
2.3194346881020724,28.42490926453867,-0.06809353227074535,2.7187430601022147,-4.117474233164885
2.303156146882494,27.807100838244803,-0.0734590000734147,2.6535041250618256,-3.87261581395215
2.285764209759994,27.203987206182518,-0.07777523577441389,2.5909622406971953,-3.6501199391976114
2.2674818192564152,26.614968515485945,-0.08120207295235646,2.530939417533852,-3.4472532999803693
2.2484980839251234,26.039484003594012,-0.08387388645018284,2.473273729352512,-3.2616828794667603
2.2289736276173353,25.477008522687168,-0.08590399448710569,2.41781740896788,-3.0914089094954678
2.2090450217300606,24.927049468980357,-0.08738823061963133,2.3644352319609077,-2.9347103730457484
2.188828471756932,24.389144056818175,-0.08840785610322358,2.3130031346667526,-2.7901004651487424
2.168422894619118,23.862856888505988,-0.08903194509515973,2.2634070245696805,-2.656290007785873
2.1479124961110583,23.34777777941521,-0.0893193462792738,2.21554175013272,-2.532157254677812
2.1273689365073833,22.843519804711192,-0.08932030244833165,2.1693102038152894,-2.4167228573052864
2.1068531555759074,22.349717539496382,-0.0890777926079811,2.1246225371830496,-2.3091290210003264
2.086416914905206,21.86602546855527,-0.08862864800681323,2.0813954710005347,-2.2086220790277746
2.066104104813296,21.39211654546425,-0.08800448322718814,2.039551686312667,-2.114537867515069
2.0459518545701694,20.92768088376568,-0.08723247540869575,1.9990192849792547,-2.0262894054158402
2.025991477792387,20.472424565333498,-0.0863360183111512,1.9597313100831855,-1.9433564792489924
2.006249279306142,20.026068553080506,-0.08533527287358735,1.9216253182037055,-1.8652768080212814
1.986747245257277,19.58834769685311,-0.0842476318991535,1.8846429968171423,-1.7916385239634318
1.967503634562687,19.159009822789923,-0.08308811327119336,1.8487298211236045,-1.7220737528708
1.9485334867825674,18.73781489763408,-0.08186969351245348,1.8138347454489299,-1.6562531165308954
1.929849059017008,18.32453426052391,-0.08060359140545471,1.77990992507427,-1.5938810109385948
1.9114602023904579,17.918949915673373,-0.07929950969498126,1.7469104649304132,-1.5346915392930587
1.8933746870015111,17.520853880116828,-0.07796584151325217,1.71479419208303,-1.4784449993437825
1.8755984828176921,17.13004758135245,-0.07660984704169467,1.683521449346332,-1.424924841450864
1.858136002832819,16.74634130029094,-0.07523780500068027,1.6530549077102943,-1.3739350274891164
1.8409903138356518,16.369553655414645,-0.07385514280077422,1.6233593955618413,-1.3252977320440749
1.8241633193286233,15.999511124487825,-0.07246654856469104,1.5944017429322555,-1.2788513366861236
1.8076559184566598,15.636047600540454,-0.07107606771325224,1.566150639218802,-1.2344486758382538
1.7914681442358003,15.279003979183674,-0.06968718638117899,1.5385765030140715,-1.1919554991704715
1.7755992838910226,14.928227774610843,-0.06830290357340905,1.5116513628366386,-1.1512491207982962
1.7600479837072478,14.58357276189967,-0.06692579367680603,1.4853487476952831,-1.1122172300264865
1.744839039043035,14.244902577920897,-0.0653258990554801,1.4596093738592826,-1.0681474757313092
1.7299943840578926,13.912086188739075,-0.06375805733706193,1.4344461842435228,-1.026323454665605
1.7155065815078179,13.584993688251831,-0.06222283440272072,1.409836428689031,-0.9866017299275411
1.7013680885845706,13.26350026905569,-0.06072058232116797,1.3857585208426184,-0.9488497651864527
1.6875713024633114,12.947485963359142,-0.05925147090717265,1.3621919634751911,-0.9129449658957259
1.6741085990772335,12.63683540041421,-0.057815515058722754,1.3391172795242232,-0.8787738160017083
1.6609723660246345,12.331437579208785,-0.05641259844213715,1.3165159483490287,-0.8462310995499172
1.648155030392106,12.031185655273582,-0.055042494014632466,1.2943703467396912,-0.8152191978842139
1.635649082172757,11.735976740557845,-0.053704881805793234,1.2726636942667222,-0.785647454256786
1.6234470938681458,11.44571171541823,-0.05239936432126052,1.251380002599488,-0.7574315986414897
1.6115417367847453,11.160295051846639,-0.051125479882222206,1.2305040284578288,-0.7304932263913028
1.5999257944685465,10.879634647136214,-0.049882714171679846,1.2100212298936812,-0.7047593251200601
1.5885921736632835,10.603641667251178,-0.048670510221910664,1.1899177256283697,-0.6801618448343824
1.5775339131274584,10.332230399226258,-0.047488277046135265,1.1701802571970137,-0.6566373069065746
1.566744190601759,10.06531811197603,-0.04633539709038181,1.1507961536745392,-0.6341264479742328
1.556216328180665,9.802824924943938,-0.0452112326582621,1.1317532987784351,-0.6125738952866884
1.5459437963092153,9.544673684065799,-0.04411513144130059,1.113040100161912,-0.5919278704002676
1.5359202165974015,9.290789844563488,-0.04304643127012278,1.094645460727765,-0.5721399184605085
1.5261393636198526,9.04110136012185,-0.04200446418682358,1.0765587518082127,-0.5531646606058757
1.5165951658468935,8.795538578035917,-0.04098855992586575,1.0587697880694713,-0.5349595672892304
1.5072817058342625,8.554034139946548,-0.03999804887962111,1.0412688040119922,-0.5174847505447306
1.4981932197823902,8.316522887811118,-0.03903226461492043,1.0240464319482847,-0.5007027734327572
1.489324096561845,8.082941774781794,-0.038090545998515836,1.0070936813501832,-0.48457847507716145
1.480668876289085,7.853229780687883,-0.03717223898200602,0.9904019194664235,-0.4690788098704547
1.4722301927588632,7.627435874634045,-0.0362076178025324,0.9730233505669588,-0.47317448936278733
1.464008814061242,7.405624033778942,-0.0352826317419993,0.9557752655643877,-0.4797635864918455
1.4559956371919562,7.187764702248373,-0.03439716712135377,0.9386537042666382,-0.4887097186925732
1.448181599691204,6.973829215806745,-0.03355098505910212,0.9216548734866387,-0.49988109757983246
1.4405577070892157,6.7637897643816665,-0.03274373321905653,0.904775138905343,-0.5131501982820045
1.433115057761984,6.55761935638947,-0.031974956582956994,0.8880110175485274,-0.5283934432631304
1.425844865412802,6.355291784724539,-0.031244107322975466,0.8713591708421876,-0.5454908992156441
1.4187384793787292,6.15678159428294,-0.03055055384287357,0.8548163982151828,-0.5643259856774921
1.411787402945954,5.962064050897734,-0.029893589050823358,0.8383796312213875,-0.5847851940891353
1.4049833098441296,5.7711151115692125,-0.029272437921563307,0.8220459281570522,-0.6067578160580814
1.3983180590770803,5.583911395878626,-0.02868626440060524,0.8058124691523865,-0.6301356796416114
1.3917837082356725,5.4004301584783505,-0.028134177698590553,0.7896765517195833,-0.6548128924925211
1.385372525428083,5.220649262555192,-0.02761523801957862,0.7736355867426553,-0.6806855907382128
1.3790769999530865,5.044547154166565,-0.027128461763000468,0.7576870948975689,-0.7076516924804379
1.3728898518332944,4.872102837351502,-0.02667282623519334,0.7418287034942926,-0.7356106548114126
1.3668040403174235,4.703295849920071,-0.026247273902814387,0.726058143735553,-0.764463233241839
1.3608127714536469,4.538106239825591,-0.025850716216983337,0.7103732483903528,-0.7941112424273618
1.354909504829819,4.376514542024076,-0.025482037033694477,0.6947719498837064,-0.8244573170619269
1.3490879595708678,4.218501755724574,-0.025140095652837535,0.6792522788076232,-0.8554046717789866
1.3433421196788613,4.064049321932547,-0.02482372949504525,0.6638123628621792,-0.886856858864068
1.3376662387971923,3.913139101185841,-0.024531756432512146,0.6484504262396239,-0.9187175225343074
1.3320548444769629,3.765753351379356,-0.02426297678687312,0.6331647894689306,-0.9508901484814749
1.326502742020994,3.6218747055699723,-0.024016175004159607,0.6179538697430945,-0.9832778073040147
1.3210050179789365,3.4814861496474734,-0.02379012101373102,0.6028161817569039,-1.0157828903698287
1.315557043365747,3.3445709997502,-0.023583571274873937,0.5877503390889411,-1.04830683655399
1.310154476675322,3.2111128792956123,-0.023395269511431824,0.5727550561683389,-1.08074984818327
1.3047932667614042,3.0810956954856934,-0.023223947131331944,0.5578291508744351,-1.1130105943912412
1.2994696556590217,2.954503615135131,-0.02306832332416708,0.5429715478261008,-1.1449858999427431
1.2941801814217506,2.8313210396559896,-0.022927104826016786,0.5281812824273086,-1.176570417423693
1.2889216810530728,2.71153257901598,-0.02279898533639942,0.5134575057466728,-1.2076562805108306
1.2836912936141165,2.5951230244681476,-0.022682644567568796,0.4987994903214315,-1.2381327358355714
1.278486463595204,2.48207731982723,-0.022576746901236292,0.48420663699090144,-1.2678857507368615
1.2733049446450169,2.3723805310419515,-0.022479939622129904,0.46967848288109987,-1.2967975939608538
1.2681448037589491,2.266017813782277,-0.022390850691503063,0.4552147106812746,-1.3247463861128115
1.263004426037509,2.1629743787258207,-0.02230808601667117,0.4408151593748521,-1.3516056164034567
1.2578825201366448,2.0632354541873177,-0.02223022616475761,0.42647983661211947,-1.377243621965642
1.2527781245448062,1.9667862456888088,-0.022155822459925534,0.4122089329401318,-1.4015230257598679
1.2476906148366878,1.873611892014921,-0.0220833923932781,0.3980028381371535,-1.424300128857462
1.2426197120712033,1.7836974172366702,-0.02201141426310836,0.3838621599345931,-1.4454242527163126
1.2375654925216966,1.6970276781175713,-0.021938320949992558,0.369787745448869,-1.4647370269876292
1.232528398950109,1.6135873062367594,-0.021862492715985875,0.35578070568863485,-1.48207161847473
1.2275092536643382,1.5333606440744951,-0.021782248899413697,0.34184244354843946,-1.4972518971960482
1.2225092736299903,1.456331674205579,-0.0216958383557843,0.32797468574647537,-1.5100915362150205
1.217530087944999,1.3824839406357583,-0.021601428470226537,0.31417951920849096,-1.5203930431789505
1.2125737580292624,1.3118004611965333,-0.02149709253617928,0.3004594324369501,-1.5279467236324482
1.2076428009330782,1.2442636297873477,-0.02138079525672758,0.28681736242553973,-1.5325295795377172
1.2027402162298408,1.1798551071263113,-0.02125037607577172,0.2732567476704221,-1.5339041516229879
1.1978695170333002,1.1185556985507077,-0.02110352998110285,0.2597815877696012,-1.5318173220330618
1.1930347657722373,1.0603452173121681,-0.02093778533248762,0.24639650995682447,-1.525999105495537
1.188240615472637,1.005202331764135,-0.02075047814229758,0.23310684263475276,-1.5161614746225667
1.1834923574501237,0.9531043948815743,-0.02053872205347127,0.219918695474459,-1.5019972906301233
1.178795976520569,0.9040272547483603,-0.020299372986133813,0.2068390448143647,-1.4831794484355851
1.174158215121583,0.8579450450945352,-0.020028987005049955,0.19387582174064472,-1.4593604002318783
1.1695866481459618,0.8148299558135079,-0.01972376930469999,0.18103799809436844,-1.4301723020463792
1.1650897708916612,0.774651984863933,-0.019379511167478523,0.16833566233671055,-1.3952281445397694
1.1606771034487078,0.7373786753970322,-0.018991510075594152,0.1557800721580911,-1.3541243976682578
1.1563593162645234,0.7029748458316725,-0.01855446543905375,0.14338366319287263,-1.3064459390100533
1.1521483838729156,0.6714023266021982,-0.018062337966231686,0.13115998228081632,-1.2517743719702468
1.1480577773600993,0.642619726312958,-0.01750815344956285,0.11912349849517478,-1.189701296723495
1.1441027119250775,0.6165822630723596,-0.016883719898453466,0.10728922533610909,-1.1198486824130691
1.1403004752459913,0.5932417146936189,-0.016179207745775026,0.09567206491381348,-1.0418991593973086
1.1366708774711085,0.5725465640062133,-0.0153825120358149,0.08428576715057795,-0.9556396211615573
1.1332368879185566,0.5544424392616243,-0.01447826668202699,0.073141404541512,-0.8610214974184116
1.1300255623049025,0.5388729633523255,-0.013446303871487254,0.0622453424958752,-0.7582393156995985
1.1270694264311107,0.5257811022269472,-0.012259225465831445,0.05159692815959458,-0.647823617949447
1.1244085864997295,0.5151109875390709,-0.010878513067918235,0.04118667782193319,-0.5307319822344245
1.1220940382420894,0.5068098848069411,-0.009247993520257422,0.03099682419659546,-0.4084010404481824
1.1201931602898099,0.5008293193526931,-0.007281379977826309,0.021008092796857454,-0.2826982117482629
1.11880020001925,0.49712286105881986,-0.004831318027041809,0.01122197932376742,-0.155702638079679
1.1180645666815896,0.49563194605793015,-0.0015654936047893092,0.0017424989448288145,-0.029287601432666704
