x,y,v_x,v_y,omega
2.375,32.48,0.0,2.923076923076923,-8.0
2.3736355171898165,31.959452458955525,-0.015160920113152124,2.8607846440838745,-7.553868025910644
2.369718969960295,31.449911363179996,-0.028356271325973306,2.80078308675535,-7.144597629607488
2.3635822212638633,30.950977580292932,-0.039829825301047825,2.742925611989782,-6.768166145116337
2.355516260430808,30.462277110377485,-0.04979196173289392,2.6870796092929696,-6.421080046491814
2.3457767472427,29.983458729444752,-0.058424851468309245,2.6331246232929724,-6.10029390511602
2.3345887056807944,29.514191941358106,-0.06588672144175672,2.580950799891967,-5.8031435725408045
2.32215051591152,29.05416518649367,-0.07231538710573591,2.530457587490664,-5.527290757083535
2.308637323479688,28.60308426571262,-0.07783119547017128,2.4815526434098665,-5.2706767952150395
2.2942039617682775,28.160670946205983,-0.0825394902121683,2.434150906663887,-5.031483894653567
2.278987465864106,27.726661722012754,-0.08653268650085126,2.3881738065942093,-4.808102487669894
2.2631092418233543,27.300806706926807,-0.08989202506305352,2.3435485832496536,-4.599103610524525
2.24667694406966,26.8828686414068,-0.09268906108910346,2.300207700305968,-4.403215439706411
2.229786104622243,26.472621998218443,-0.09498693277108873,2.2580883351202092,-4.219303283266259
2.212521550550371,26.0698521740442,-0.09684144580526756,2.217131933482516,-4.046352457390726
2.1949586401118433,25.67435475632447,-0.09830200351170627,2.1772838189589265,-3.883453582826302
2.1771643431737018,25.285934856247593,-0.09941240691208776,2.138492848561931,-3.7297899190776507
2.1591981875149786,24.90440650016136,-0.10021154485150556,2.100711107951761,-3.5846264211696615
2.1411130893046035,24.529592072796653,-0.1007339908193259,2.063893640545015,-3.447300257736072
2.1229560833001364,24.16132180662092,-0.1010105203414213,2.0279982058520263,-3.3172125730020143
2.104768966020246,23.799433312412596,-0.10106856054624878,1.9929850631293358,-3.1938213109598323
2.0865888632229237,23.443771146795882,-0.10093258164622013,1.9588167770563525,-3.0766349493233087
2.068448731405927,23.094186413021866,-0.10062443854263474,1.9254580426549586,-2.9652070149552436
2.0503778016826546,22.75053639174481,-0.10016366949372636,1.8928755270901212,-2.859131272395244
2.0324019732324166,22.412684198936432,-0.09956775773114085,1.8610377263362852,-2.758037493657892
2.014544162543845,22.08049846841775,-0.09885236103076395,1.829914834982411,-2.661587731253484
1.9968246138353913,21.753853056777317,-0.09803151350760934,1.799478627689052,-2.569473027905774
1.9792611753239613,21.43262676869417,-0.09711780328605733,1.7697023510126078,-2.48141050610643
1.9618695454024115,21.116703100899663,-0.09612252917560721,1.74056062448187,-2.397140788779203
1.94466349226284,20.805970003200272,-0.09505583904185305,1.712029349955805,-2.31642570919176
1.9276550500520566,20.500319655147017,-0.09392685218907454,1.6840856284137422,-2.2390462740641364
1.9108546942572182,20.19964825708077,-0.09274376775357461,1.6567076834334211,-2.1648008487552612
1.894271498684103,19.903855834408613,-0.09151396083659599,1.6298747907016669,-2.0935035376067894
1.877913276100077,19.61284605407733,-0.09024406787480431,1.6035672129792695,-2.0249827361050077
1.861786704361959,19.32652605230848,-0.08894006254872734,1.5777661400079137,-1.959079834584754
1.8458974396301708,19.044806272746374,-0.08760732336003046,1.552453632904398,-1.8956480558251954
1.8302502180801168,18.767600314247623,-0.08625069386279219,1.527612572637251,-1.8345514111434285
1.8148489473557068,18.494824787610085,-0.08487453640843022,1.5032266122243179,-1.775663761534464
1.799696788864943,18.22639918060038,-0.08348278015560981,1.4792801323279114,-1.7188679720822737
1.7848030564044948,17.962251200516334,-0.08200313607159532,1.4556974241615395,-1.6613195571647903
1.7701749798009851,17.702310891424354,-0.08053104841184493,1.4325282324159763,-1.6061883178468117
1.755811028651487,17.44650506810797,-0.07906840880480306,1.4097586933216333,-1.5533455966421217
1.7417093539589652,17.194762987492915,-0.07761686555654809,1.3873755357345654,-1.5026708804661748
1.727867829653828,16.94701624488591,-0.07617784894497691,1.365366048787686,-1.4540512019974883
1.714284089797743,16.7031986758449,-0.07475259390041102,1.3437180516679992,-1.4073805909893997
1.7009555619148697,16.46324626331285,-0.07334216035373402,1.322419865354766,-1.3625595708732747
1.687879496847924,16.227097049675766,-0.07194745150121999,1.3014602861683762,-1.319494696474165
1.6750529954941737,15.99469105343124,-0.07056923020711812,1.280828560993016,-1.278098129085742
1.6624730327389035,15.76597019017753,-0.0692081337403266,1.2605143640482028,-1.238287245529689
1.6501364788705022,15.540878197654639,-0.0678646870196902,1.2405077750950313,-1.1999842781613612
1.63804011873164,15.319360564588543,-0.06653931452322184,1.220799258972693,-1.1631159830834357
1.62618066883459,15.101364463107736,-0.06523235099955792,1.2013796463696098,-1.1276133340967935
1.6145547926451855,14.886838684517741,-0.06394405110493367,1.1822401157414504,-1.0934112401568314
1.6031591142189316,14.675733578234418,-0.06267459807566587,1.1633721762954867,-1.0604482843170722
1.5919902303540305,14.468000993690769,-0.061424111534346404,1.1447676519672623,-1.0286664823332567
1.5810447214093644,14.263594225044784,-0.06019265451749941,1.1264186663214555,-0.9980110592725839
1.5703191609205036,14.062467958527574,-0.05898023980317631,1.1083176283142042,-0.9684302426266465
1.559810124133433,13.864578222281981,-0.05778683560871861,1.0904572188590482,-0.9398750705648625
1.5495141955637055,13.669882338551787,-0.05661237072158616,1.07283037814311,-0.9122992140895322
1.539427975677997,13.478338878090927,-0.055456739119621346,1.0554302936442055,-0.8856588119655863
1.5295480867854137,13.289907616670654,-0.05431980413130493,1.0382503888032875,-0.8599123173989786
1.5198711782172722,13.104549493570453,-0.05320140218137436,1.0212843123100381,-0.8350203555286853
1.5103939308663192,12.922226571945924,-0.052101346162548454,1.0045259279625234,-0.8109455908794655
1.5011130611493928,12.742902000973476,-0.05101942846997047,0.987969305064686,-0.7876526039968311
1.4920346881633246,12.566772778973437,-0.04985138248634185,0.969022050491295,-0.8165942447700363
1.4831616199246989,12.394044436848493,-0.0487382646095005,0.950181750896995,-0.8469073595787259
1.4744841360222596,12.224697963950206,-0.047678223195379385,0.9314457257506408,-0.8784791335188943
1.4659928498224497,12.058714822011957,-0.046669401246954276,0.9128114068965587,-0.9111985240582108
1.4576787092059589,11.896076925181095,-0.045709938936277866,0.8942763356685675,-0.9449560097662731
1.4495329968787911,11.736766620533515,-0.04479797581002857,0.8758381604156433,-0.9796433413933521
1.4415473303130928,11.580766668996624,-0.04393165269773312,0.8574946344387261,-1.0151532941996606
1.433713661369755,11.428060226606412,-0.04310911333935267,0.8392436143413936,-1.0513794204226345
1.426024275652027,11.278630826023637,-0.04232850574651277,0.8210830588005363,-1.0882158007465488
1.418471791637005,11.13246235823258,-0.041587983309286564,0.8030110277667776,-1.1255567936066901
1.4110491596299417,10.989539054343826,-0.040885705658085025,0.7850256821082733,-1.1632967811188348
1.4037496605848079,10.849845467419666,-0.04021983928784578,0.7671252837157387,-1.201329910373467
1.3965669048334632,10.713366454237047,-0.03958855794931801,0.7493081960911494,-1.2395498287724518
1.3894948307651434,10.580087156898557,-0.038990042809790175,0.7315728854476352,-1.2778494120131434
1.3825277034977859,10.449992984196438,-0.03842248238307237,0.713917922353698,-1.316120483240489
1.3756601135829785,10.323069592628102,-0.037884072225896466,0.6963419839611397,-1.35425352179092
1.3688869757870885,10.199302866953921,-0.03737301439510336,0.6788438568630871,-1.3921373598420037
1.362203527992398,10.078678900178971,-0.036887516657012766,0.6614224406363681,-1.4296588651583613
1.3556053302639208,9.961183972829875,-0.036425791437178105,0.6440767521313585,-1.466702607986743
1.34908826413,9.846804531385633,-0.03598605449527587,0.6268059305824438,-1.5031505100011155
1.3426485321278747,9.73552716570709,-0.035566523306116586,0.609609243623581,-1.5388814730322735
1.3362826576691966,9.627338585293401,-0.035165415123640784,0.5924860943063031,-1.573770985136501
1.3299874852850493,9.522225594174948,-0.03478094470021751,0.5754360292320799,-1.6076907013657167
1.3237601813154625,9.420175064230587,-0.03441132162852521,0.5584587479274633,-1.6405079964001217
1.3175982351148035,9.321173906692295,-0.034054747267686356,0.5415541136091178,-1.6720854859982393
1.3114994608518968,9.225209041571851,-0.033709411209053276,0.5247221655069206,-1.7022805140156232
1.3054619999923827,9.1322673647119,-0.033373487229992796,0.507963132936998,-1.7309446015533394
1.2994843245608383,9.042335712126697,-0.03304512867605572,0.49127745134302797,-1.7579228546368313
1.2935652412917342,8.955400821256013,-0.03272246320287741,0.4746657805534583,-1.7830533267186293
1.287703896791581,8.871449288708106,-0.03240358679882456,0.4581290255343849,-1.8061663322787962
1.2818997838499113,8.7904675240143,-0.03208655699750437,0.44166835995236986,-1.8270837079141045
1.2761527490543487,8.712441698857791,-0.03176938517541458,0.42528525289771185,-1.84561801763084
1.2704630018853262,8.63735769117303,-0.0314500278137248,0.40898149915520243,-1.8615716996866363
1.2648311254895561,8.565201023439116,-0.031126376583720868,0.3927592534438339,-1.8747361534056752
1.259258089358762,8.49595679441239,-0.03079624709177069,0.37662106907534104,-1.8848907661203729
1.2537452641723803,8.429609603460818,-0.03045736609024638,0.36056994149766725,-1.8918018830572139
1.248294439101156,8.366143466579487,-0.03010735692335726,0.3446093571837876,-1.8952217269909721
1.2429078419145514,8.305541723087387,-0.029743722927805083,0.32874334828400376,-1.894887280417603
1.237588162291254,8.247786931939572,-0.029363828442167186,0.3129765533583848,-1.8905191516632536
1.2323385788025791,8.192860756549269,-0.02896487698755205,0.29731428431165974,-1.8818204589246144
1.2271627901290016,8.140743837022868,-0.028543886052198084,0.28176259931503655,-1.868475784388896
1.2220650511891853,8.091415648799632,-0.02809765772354015,0.2663283809431418,-1.850150276676683
1.2170502150223752,8.04485434690653,-0.027622744129905383,0.2510194178691111,-1.8264890172424628
1.2121237814901713,8.001036595460583,-0.0271154062279167,0.23584448708586483,-1.7971168197836929
1.2072919541861344,7.959937382785565,-0.02657156381693824,0.22081343152545996,-1.7616387077453033
1.2025617074146435,7.921529823715765,-0.025986733644071107,0.2059372248056528,-1.7196414227031498
1.1979408658086381,7.885784952565196,-0.025355950867099172,0.19122801020067315,-1.6706964677913998
1.193438200234364,7.852671513165259,-0.024673666624834938,0.17669909424305796,-1.614365400555361
1.189063545294974,7.822155756746774,-0.023933610479497717,0.16236486596233152,-1.5502083758002037
1.1848279463348164,7.7942012648020125,-0.02312860018892131,0.14824060009058762,-1.4777973158563034
1.180743847899123,7.768768822997984,-0.022250271318781493,0.1343420866208544,-1.3967355533983647
1.1768253419535215,7.745816384157347,-0.02128868363234546,0.12068501160843774,-1.3066863080425146
1.1730885040876853,7.725299173028709,-0.020231737099167087,0.10728400093199303,-1.2074127773164751
1.1695518613256204,7.707170000924325,-0.019064293590443468,0.09415124467226546,-1.098832582906263
1.1662370588882884,7.69137986800218,-0.01776684460213325,0.08129467668490309,-0.9810880468381289
1.1631698298012911,7.67787892042632,-0.016313478586724883,0.06871585193575347,-0.8546298894250914
1.1603814292856724,7.6666177701207445,-0.014668749364592901,0.05640804034842319,-0.7203034529734331
1.1579107984036392,7.657549027107468,-0.012782704880220222,0.04435577091021284,-0.5794119162076659
1.1558079468898395,7.65062856059771,-0.010582311939776944,0.032538301420419476,-0.433712271092417
1.1541397056015272,7.645815331715415,-0.007953702374804033,0.020942019493961312,-0.28528731780370187
1.1530016384715482,7.643066854867129,-0.004691487958295468,0.00959661215365022,-0.1362477185328186
1.1525578573802857,7.642316624466769,-0.00023941305573160938,-0.0012607188163004605,0.011643921318632705
