x,y,v_x,v_y,omega
2.375,32.48,0.0,3.6923076923076925,-5.795918367346939
2.373689205946436,31.823656744414397,-0.014564378372930994,3.600395147532312,-5.398633006147046
2.369963210531257,31.183491331955413,-0.02683557068461219,3.512553879789749,-5.042350100252307
2.364203512299225,30.55879696219791,-0.0371610763379706,3.4284946730713624,-4.721606372140608
2.356734203281732,29.94891630229982,-0.04583124607861414,3.3479571035740756,-4.431798306819003
2.347831323605219,29.35323665183178,-0.05308963921597984,3.270705679404169,-4.16902807038119
2.337730538063724,28.771185742255735,-0.059141311245074324,3.196526649218551,-3.9299803005098823
2.3266334661993424,28.20222806344067,-0.06415948724805275,3.125225337615485,-3.7118229282875883
2.3147129253833643,27.645861632032656,-0.06829096626281417,3.056623900251336,-3.5121268547769704
2.3021172915404104,27.10161513346955,-0.07166052088111807,2.9905594171165064,-3.328800528079625
2.2889741400048536,26.569045382433444,-0.07437449618062644,2.926882261062444,-3.160036374310391
2.275393296328813,26.047735056611792,-0.07652376688649315,2.8654546925115056,-3.004266716881237
2.261469401347367,25.537290666535892,-0.07818617735179617,2.806149641665144,-2.8601273340251843
2.2472840747441047,25.0373407305198,-0.07942856268444624,2.748849647402538,-2.7264271980717933
2.2329077454848196,24.547534128724564,-0.08030842908539211,2.6934459281000938,-2.6021232427797902
2.2184012048526776,24.06753861441051,-0.08087535571618273,2.6398375642782947,-2.4862992396386194
2.2038169277095476,23.59703946372798,-0.08117216809637301,2.5879307766387036,-2.378148047022464
2.1892001994804504,23.13573824809595,-0.08123592333803911,2.5376382859393867,-2.2769566396563268
2.1745900797931434,22.68335171545052,-0.08109873985426405,2.488878743454273,-2.1820934391611817
2.160020228379289,22.23961076850508,-0.08078849807744813,2.44157622260618,-2.092997556344923
2.145519614506064,21.804259529723527,-0.08032943384727699,2.395659763855516,-2.009169627593546
2.1311131276605795,21.377054484023645,-0.07974264221366066,2.351062966143201,-1.9301639851544456
2.116822104299385,20.9577636913441,-0.0790465062440557,2.307723619185077,-1.8555819473312039
2.1026647830791085,20.5461660621608,-0.0782570628701304,2.265583371740427,-1.785066051973941
2.0886566990048,20.142050689854443,-0.07738831573329345,2.224587431663555,-1.7182950869735625
2.074811025292137,19.745216234533796,-0.0764525032963001,2.1846842941214195,-1.6549797961744035
2.061138870376152,19.355470353526993,-0.07546032910352948,2.1458254948430526,-1.59485915932361
2.047649536362599,18.972629174280407,-0.074421159935948,2.107965385674588,-1.5376971612565073
2.0343507442679845,18.59651680586427,-0.07334319667088475,2.071060930060272,-1.4832799791714153
2.021248830598063,18.226964885685945,-0.07223362188379581,2.0350715163655346,-1.431413528128522
2.0083489191455133,17.863812158364013,-0.07109872758897676,1.9999587872115017,-1.3819213142574391
1.9956550713239067,17.50690408402624,-0.06994402598443124,1.9656864832082106,-1.3346425529312589
1.9831704178792144,17.15609247356793,-0.06877434562326076,1.9322202996618825,-1.28943051564627
1.970897274417344,16.81123514864885,-0.06759391506418855,1.899527754994528,-1.2461510747660949
1.958837242844577,16.472195624421325,-0.06640643574433433,1.8675780697557762,-1.2046814198333253
1.9469913005273962,16.138842813172584,-0.06521514555767405,1.8363420552302494,-1.1649089229723086
1.9353598787308257,15.811050747234205,-0.06402287440421994,1.805792010751732,-1.126730134127155
1.9239429316832681,15.488698319662848,-0.06283209279086575,1.7759016289299916,-1.0900498896004165
1.9127399974352508,15.171669041332017,-0.06164495440932696,1.7466459080792616,-1.0547805196631692
1.9017502515247655,14.859850813195923,-0.06046333348495307,1.7180010712106581,-1.020841142964659
1.8909725543290543,14.55313571259557,-0.05928885757850538,1.6899444910155064,-0.9881570371356007
1.8804054928684635,14.251419792575032,-0.05812293642806093,1.6624546203238058,-0.9566590764002058
1.8700474177295763,13.954602893264333,-0.056966787337351214,1.6355109275728577,-0.9262832282267536
1.859896475689908,13.662588464464818,-0.0558214575478541,1.6090938368662016,-0.8969701020871336
1.8499506385530329,13.37528339864497,-0.05468784397298001,1.5831846722431946,-0.8686645442891024
1.8402077286394678,13.092597873619695,-0.05356671062218565,1.5577656058154097,-0.8413152736134074
1.8306654413235146,12.814445204245082,-0.052458703999518026,1.5328196094580546,-0.8148745531501996
1.821321364958411,12.54074170251426,-0.05136436672385565,1.5083304097732813,-0.7892978943010597
1.8121729984905184,12.27140654548855,-0.05028414958606203,1.4842824460679491,-0.7645437894077417
1.803223336110153,12.00636311496308,-0.04915654352910956,1.4606445597705897,-0.7389439977888136
1.794474476423869,11.745537331067371,-0.048053008540712774,1.4374197057372586,-0.7144167933849088
1.7859221110131955,11.48885608166232,-0.046973273800102404,1.4145941765411,-0.6909052661235865
1.777561983749972,11.236248670184768,-0.04591702912460284,1.3921548398761574,-0.6683560955071743
1.769389897300825,10.98764671487098,-0.04488393142147656,1.3700891080548363,-0.6467192879109981
1.7614017185418325,10.74298405329758,-0.0438736103451078,1.3483849094273785,-0.6259479356851034
1.7535933830179098,10.50219665190669,-0.04288567325403283,1.3270306615824978,-0.6059979960397603
1.7459608985654724,10.265222520206258,-0.04191970955082462,1.306015246200072,-0.5868280879012026
1.7385003482028965,10.03200162935888,-0.04097529447779866,1.2853279854374378,-0.5683993051072656
1.7312078923809489,9.802475834892867,-0.04005199243273034,1.2649586197404874,-0.5506750444756059
1.7240797706745046,9.576588803288065,-0.039149359861095474,1.2448972869795518,-0.5336208474224233
1.7171123029872901,9.354285942206282,-0.038266947774620134,1.2251345028180325,-0.517204253939163
1.7103018903329716,9.135514334152049,-0.03740430394003095,1.2056611422290164,-0.501394667850375
1.7036450152484637,8.92022267336408,-0.03656097477672394,1.186468422081731,-0.4861632323793652
1.6971382418887808,8.708361205751409,-0.03573650699752745,1.1675478847257421,-0.4714827151408791
1.6907782158469566,8.499881671700525,-0.03493044902274186,1.1488913825063194,-0.4573274017630521
1.6845616637374385,8.294737251591506,-0.03414235219412637,1.1304910631494367,-0.44367299741531974
1.6784853925768501,8.092882513871704,-0.033371771812411036,1.1123393559594972,-0.4304965355858546
1.6725462889920064,7.894273365545409,-0.03261826801918771,1.094428958777098,-0.4177762935122212
1.6667413182815327,7.698867004947147,-0.031881406541631505,1.0767528256480314,-0.4054917137230557
1.661067523354311,7.506621876674579,-0.031160759316384866,1.0593041551582723,-0.3936233311973309
1.6555220235652008,7.317497628564968,-0.030455905007065093,1.0420763793929695,-0.3821527056917336
1.6501020134660265,7.131455070606361,-0.029766429428202568,1.025063153480465,-0.3710623588263762
1.6448047614876624,6.948456135681457,-0.029091925886955448,1.008258345685121,-0.36033571555492677
1.6396276085670975,6.768463842048423,-0.02843199545265343,0.99165602801528,-0.3499570496776824
1.634573735498073,6.591664015273526,-0.02772214975873208,0.9727864917058046,-0.38900359084378033
1.629643188182662,6.41825152452455,-0.027061709301387057,0.9540189610605828,-0.4292021582651346
1.6248272263683035,6.248208235707839,-0.02644897752481986,0.9353509146806376,-0.4704514618253457
1.6201174154054245,6.081516459682813,-0.025882255396058557,0.9167799300418865,-0.5126515745666046
1.6155056265009966,5.91815893467944,-0.025359843542030924,0.8983036811066947,-0.5557037096066118
1.6109840366131194,5.758118809113814,-0.024880044101049482,0.8799199362891558,-0.5995099978252486
1.6065451280366032,5.601379624737966,-0.02444116230468387,0.8616265567758037,-0.6439732653270954
1.6021816877268558,5.447925300059573,-0.024041507803621527,0.8434214952063526,-0.6889968096589268
1.59788680640714,5.297740113966007,-0.023679395748775204,0.8253027947221482,-0.7344841737258125
1.5936538775024598,5.150808689485615,-0.023353147636561624,0.8072685883933381,-0.7803389163048403
1.589476595941926,5.007115977616671,-0.023061091924925475,0.7893170990393832,-0.8264643780011026
1.5853489568704964,4.866647241151593,-0.02280156442429117,0.7714466394614955,-0.8727634414256792
1.5812652543104455,4.729388038420161,-0.022572908465163775,0.7536556131099704,-0.9191382842990192
1.5772200798128422,4.5953242068709805,-0.022373474841540918,0.7359425152142547,-0.9654901240943965
1.5732083211397088,4.464441846404885,-0.022201621526607096,0.7183059344090509,-1.0117189527338555
1.5692251610184247,4.336727302367439,-0.02205571315432537,0.7007445548959049,-1.057723259732078
1.5652660760113624,4.212167148100008,-0.02193412025748048,0.6832571591866705,-1.1033997420505435
1.5613268355457413,4.090748166939726,-0.021835218249418822,0.6658426314831348,-1.1486429987738405
1.5574035011513123,3.9724573335481956,-0.021757386133126683,0.648499961756077,-1.193345208550539
1.5534924259567706,3.8572817944363926,-0.02169900491733503,0.6312282505972986,-1.2373957875512291
1.5495902544998628,3.745208847538944,-0.02165845571497686,0.6140267149299192,-1.280681025484795
1.5456939229110112,3.6362259206744376,-0.021634117494483567,0.5968946946757182,-1.3230836969796098
1.5418006595360967,3.530320548709181,-0.02162436444901287,0.5798316604937839,-1.3644826453783943
1.5379079860708456,3.4274803492197137,-0.021627562942665147,0.5628372227225307,-1.4047523357139504
1.5340137192872687,3.3276929964237034,-0.02164206798596737,0.5459111416775945,-1.4437623733290113
1.5301159734418572,3.230946193119376,-0.021666219185268752,0.529053339481606,-1.4813769842798212
1.526213163465997,3.1372276403394395,-0.021698336102067107,0.5122639136287831,-1.5174544533252519
1.522304009051445,3.0465250043862184,-0.021736712948513207,0.4955431525180981,-1.5518465149604803
1.5183875397579973,2.958825880869437,-0.021779612534238234,0.4788915532238984,-1.584397692621444
1.5144631012868865,2.8741177553161457,-0.021825259366994445,0.46230984181265244,-1.6149445808865326
1.5105303630822962,2.792387959862676,-0.021871831795119426,0.4457989965592275,-1.6433150652703463
1.5065893274450486,2.7136236254704222,-0.0219174530631866,0.42936027446580877,-1.6693274740931767
1.5026403403673967,2.6378116290298195,-0.021960181132945445,0.41299524154087497,-1.6927896569965195
1.4986841043265045,2.5649385346293236,-0.021997997099190644,0.3967058073535138,-1.7134979850729688
1.4947216933072434,2.4949905281681204,-0.022028792003710718,0.3804942644376415,-1.7312362684543081
1.4907545703632188,2.4279533443827575,-0.022050351818783828,0.36436333317748254,-1.7457745887965574
1.48678460806955,2.36381218523999,-0.022060340333093096,0.3483162128532858,-1.7568680467678293
1.4828141122733367,2.3025516285233607,-0.022056279624831223,0.3323566395536991,-1.7642554288976398
1.478845849610038,2.244155525314955,-0.022035527745151846,0.31648895165078916,-1.7676578047333165
1.4748830793291408,2.1886068849552203,-0.02199525315370968,0.3007181634573618,-1.766777075262106
1.4709295900649972,2.1358877459690397,-0.021932405336773333,0.2850500475001904,-1.761294508590728
1.4669897423053904,2.0859790314009032,-0.021843680881077833,0.26949122547909254,-1.7508693212568867
1.463068517461885,2.038860387047535,-0.021725484046761685,0.2540492673361184,-1.7351373966831083
1.459171574649353,1.9945100012777814,-0.021573880536925542,0.23873279677225043,-1.713710281137108
1.4553053165645449,1.9529044055880291,-0.021384542627611025,0.22355159978055125,-1.6861746693483846
1.4514769662597977,1.9140182559117171,-0.021152682980689598,0.208516729956231,-1.6520926970448453
1.4476946572113079,1.877824096218216,-0.02087297311364138,0.19364059997154048,-1.6110035108819774
1.4439675400031007,1.844292108447661,-0.020539440310882222,0.17893704192351947,-1.5624268079666714
1.4403059103894424,1.81338985683972,-0.020145333174208895,0.164421309275809,-1.5058693543554675
1.4367213657948228,1.785082040930181,-0.01968294009934288,0.1501099786079513,-1.4408359367757444
1.4332270010172796,1.7593302808265534,-0.019143335206695075,0.13602068921012134,-1.3668468047871278
1.429837659933027,1.7360929718697342,-0.018516010173890013,0.1221716325323262,-1.2834644280333913
1.4265702698491975,1.7153252642191106,-0.017788324090881297,0.10858067469682131,-1.1903332507331699
1.4234443012075326,1.6969792457157524,-0.016944660816503733,0.09526397534047319,-1.0872367893914785
1.42048242138,1.6810044291991453,-0.015965115044968996,0.08223398595518083,-0.9741761384533627
1.4177114533284165,1.6673486548629732,-0.014823418861515407,0.0694968400023056,-0.8514710731393009
1.4151638184433892,1.655959482591566,-0.013483635416565965,0.05704951856886811,-0.7198764796716662
1.412879761761327,1.6467860056841168,-0.011894772161903875,0.04487800262500516,-0.5806889035442
1.4109109026416806,1.6397806571412978,-0.009981440278610464,0.03295920340629892,-0.43578938191746497
1.4093263313660422,1.6348998005766333,-0.007624907228480849,0.021272536201099666,-0.28753957358966364
1.408225141362811,1.632099930105067,-0.004610537251865721,0.009837135705201968,-0.13844590026873227
1.4077773698652871,1.631315522845668,-0.0003647016095111519,-0.001121499489663275,0.009361450024951284
