x,y,v_x,v_y,omega
2.375,32.48,0.0,3.8974358974358974,-6.408163265306122
2.372458367973855,31.5979536730306,-0.02210114805343385,3.7725321631675772,-5.825605937130245
2.3653547128340344,30.743777544338027,-0.03966976620587677,3.6550863472025865,-5.32362649511665
2.3546280002505933,29.915836971823925,-0.05360599538926393,3.5443968920504862,-4.888053563780791
2.34103237349752,29.11264803024127,-0.06461684594181075,3.4398547738856404,-4.507632182843414
2.32517635264762,28.332858111813263,-0.07326159623123128,3.3409271254883324,-4.173345298138968
2.30755293691736,27.575229866417118,-0.07998549707537667,3.247144573608595,-3.87791054031932
2.288562920895245,26.838627744449077,-0.08514507702997029,3.1580912695917513,-3.615402549579954
2.268533094087712,26.12200660323236,-0.08902732999205697,3.07339691490143,-3.3809664928023797
2.247730546004439,25.424401974300395,-0.09186439247118497,2.9927302932026434,-3.1705986497640497
2.2263739819725443,24.744921685141655,-0.09384485998007175,2.9157939603516168,-2.9809768796586904
2.2046427269210427,24.082738598274904,-0.09512257525037891,2.842319838489671,-2.8093285605071316
2.182683928450149,23.43708428134398,-0.09582349840956336,2.772065526127053,-2.6533269406911106
2.1606183484015498,22.807243459857347,-0.09605111070869303,2.7048111824523673,-2.511009215896893
2.13854504142512,22.192549132975515,-0.0958906890863481,2.6403568773896855,-2.380711349252111
2.1165451510407314,21.592378254904183,-0.09541270556051042,2.5785203232305607,-2.2610158896151336
2.0946850023227697,21.006147901737904,-0.09467554416089606,2.519134921693602,-2.1507099499199334
2.0730186312409415,20.433311857252946,-0.09372768263760674,2.4620480738277704,-2.0487511784299155
2.0515898607387086,19.873357562052966,-0.09260945216441882,2.4071197105199134,-1.9542400563204385
2.0304340105381917,19.32580337926734,-0.09135446262268684,2.3542210093550526,-1.8663972313975132
2.00957930975182,18.790196137162518,-0.08999076160663208,2.30323326981735,-1.7845448828543367
1.9890480674157853,18.266108914902865,-0.08854178044584377,2.2540469237448386,-1.708091329399837
1.9688576451133506,17.753139042556427,-0.0870271091405442,2.2065606618763756,-1.6365182599992718
1.9490212672325389,17.250906290484807,-0.08546313330129658,2.1606806604855273,-1.5693700953739287
1.9295486975776286,16.7590512266437,-0.08386355935009893,2.116319894654539,-1.5062450885457623
1.9104468056280417,16.27723372317289,-0.08223984890717809,2.073397526830738,-1.4467878509342282
1.891720041406376,15.805131596069437,-0.08060157910730735,2.031838361025381,-1.390683051936106
1.873370834444846,15.342439363791385,-0.07895674229729857,1.9915723544359294,-1.3376500883952316
1.855399929544976,14.888867112393928,-0.07731199596244458,1.9525341794550153,-1.2874385588115302
1.8378066697682052,14.444139456304502,-0.07567287166164817,1.914662830018263,-1.2398244077653953
1.8205892352653898,14.007994585138857,-0.07404395010196221,1.8779012670742885,-1.1946066305417222
1.803744845064879,13.580183388079188,-0.07242900816335081,1.8421960986619723,-1.1516044476338692
1.7872699277243214,13.160468648305425,-0.07083114262410657,1.8074972906751052,-1.1106548747014764
1.771160265757064,12.748624300814178,-0.06925287448248042,1.773757904900967,-1.0716106264323342
1.7554111179275473,12.344434747695079,-0.06769623707853183,1.7409338613520773,-1.0343383032300841
1.740017322837737,11.947694225577244,-0.06616285065895218,1.708983722281275,-0.9987168181970223
1.7249733866713308,11.55820622052213,-0.06465398557066612,1.6778684955892802,-0.9646360288831011
1.7102735575026804,11.175782926134321,-0.06317061589585883,1.6475514556090765,-0.931995544027732
1.6959118881955795,10.80024474109798,-0.06171346503545128,1.617997979489524,-0.9007036802678414
1.6818822895993453,10.431419802731863,-0.06028304449702061,1.589175397607149,-0.8706765477132836
1.6681785754844998,10.069143553496353,-0.05887968693641937,1.561052856614682,-0.8418372465507641
1.6547945004386744,9.713258337688135,-0.05750357433162516,1.5336011938915506,-0.8141151595515983
1.641723791757546,9.36361302582629,-0.05615476202601421,1.5067928222984086,-0.7874453276250101
1.628960176209545,9.020062664472338,-0.054833199260953265,1.4806016242576985,-0.7617678974565957
1.6165182917904755,8.682470363473808,-0.05335710003530269,1.454983601816469,-0.7317010261877186
1.6044110270068548,8.350704611360282,-0.051923463300526974,1.4299359817794202,-0.7031580582720108
1.5926287271842607,8.02463679008083,-0.05053131776550987,1.405436377172335,-0.6760421734370213
1.5811619657657814,7.704143300036151,-0.04917965109083102,1.381463536259647,-0.6502638706656421
1.5700015523388218,7.389105307254528,-0.04786742218707776,1.357997270537066,-0.6257403277789776
1.5591385380600817,7.079408506504578,-0.0465935715410986,1.3350183881581559,-0.6023948244685357
1.5485642188989073,6.774942899149671,-0.04535702986041754,1.3125086323192805,-0.5801562217742063
1.5382701370573997,6.475602584652872,-0.044156725283127196,1.2904506241746243,-0.5589584918548428
1.5282480808729542,6.181285564734864,-0.04299158936422635,1.2688278098950234,-0.5387402926361814
1.5184900834639379,5.891893559271935,-0.04186056201852229,1.2476244115217552,-0.5194445825624014
1.5089884203407968,5.607331833097458,-0.04076259557400958,1.2268253812997876,-0.501018271236406
1.4997356061720417,5.327509032939432,-0.03969665806734068,1.2064163592047772,-0.4834119022214463
1.490724390866486,5.052337033789335,-0.03866173589401246,1.1863836334047437,-0.46657936470282024
1.4819477551090594,4.781730794054351,-0.03765683590969734,1.1667141034212092,-0.45047763108141436
1.473398905466932,4.5156082188966735,-0.036680987065322204,1.1473952457759933,-0.4350665178979678
1.4650712691650516,4.253890031210592,-0.03573324164668293,1.1284150819290795,-0.4203084677742277
1.4569584886150664,3.9964996497307688,-0.034812676179275456,1.1097621483302562,-0.40616835030987397
1.4490544157686571,3.743363073804165,-0.0339183920503706,1.091425468422812,-0.39261328009671775
1.441353106355176,3.4944087743936088,-0.033049515892943984,1.0733945264516027,-0.3796124502080924
1.4338488140539705,3.249567590913518,-0.032205199769712436,1.0556592429404923,-0.36713697969489323
1.4265359846435954,3.0087726335280642,-0.03138462119006965,1.0382099517156256,-0.3551597737732642
1.4194092501631146,2.771959190569209,-0.030586982988025632,1.0210373783613687,-0.34365539552496854
1.4124634231146906,2.5390646407570614,-0.02981151308522572,1.004132620005149,-0.3325999480521687
1.4056934907315286,2.310028369927835,-0.029057464159660755,0.987487126335958,-0.3219709661355581
1.3991010270099404,2.0848971136565666,-0.028268307332412267,0.9701759716750846,-0.3302379601362715
1.3926858589013067,1.8637327683294416,-0.027515763177445317,0.9529922485607972,-0.34086012592209114
1.3864395723977851,1.64650646371868,-0.026799771635785723,0.9359321393588729,-0.35370764491558493
1.380353781404644,1.4331901895024224,-0.026120150043703057,0.9189919842607501,-0.3686549471731143
1.37442015462762,1.2237567598328312,-0.025476604539113146,0.9021682737356849,-0.38558040269747024
1.368630439945363,1.018179779574936,-0.024868740523991077,0.8854576415503621,-0.4043660256341611
1.3629764864757652,0.8164336120893267,-0.024296072255119695,0.8688568583245119,-0.4248971900576884
1.3574502645290378,0.6184933484386335,-0.023758031629465565,0.8523628255945566,-0.44706235611395695
1.3520438836257864,0.4243347779037876,-0.023253976224893714,0.8359725703606196,-0.4707528053357629
1.3467496087449715,0.2339343597013439,-0.02278319665175744,0.8196832400953956,-0.49586238399045823
1.3415598749544193,0.04726919579778155,-0.022344923266087155,0.8034920981964407,-0.5222872533526777
1.3364673005653989,-0.1356829952794456,-0.021938332290612695,0.7873965198664319,-0.5499256458206181
1.3314646989426286,-0.3149439037311055,-0.021562551385649678,0.771393988408892,-0.578677625811878
1.3265450890918673,-0.49053465297005516,-0.02121666470792764,0.7554820919298227,-0.6084448543842944
1.32170170513891,-0.6624758233924339,-0.02089971749170209,0.7396585204386595,-0.6391303565284753
1.3169280048063259,-0.8307874755275577,-0.020610720182942865,0.723921063345003,-0.6706382900716338
1.312217676987578,-0.9954891726575639,-0.020348652153995846,0.7082676073507317,-0.7028737151166198
1.3075646485122414,-1.1566000029980472,-0.020112465022844018,0.6926961347403999,-0.735742362915337
1.302963090190854,-1.3141386015319725,-0.019901085597916347,0.6772047220763218,-0.7691504030415651
1.2984074222234716,-1.4681231715912304,-0.019713418466278543,0.6617915393085002,-0.8030042076839932
1.2938923190522544,-1.6185715062827768,-0.019548348239957096,0.6464548493136246,-0.8372101118253288
1.289412713735372,-1.7655010098602517,-0.019404741472064523,0.6311930078818111,-0.8716741680068734
1.2849638019171878,-1.9089287191467506,-0.019281448251275535,0.6160044641746727,-0.9063018942990347
1.2805410454680894,-2.048871325120473,-0.01917730348001475,0.6008877616837691,-0.9409980140058485
1.2761401758664697,-2.1853451947824354,-0.019091127838417907,0.5858415397245996,-0.9756661855245635
1.2717571973952937,-2.3183663934342036,-0.019021728432678377,0.570864535508193,-1.0102087206584744
1.2673883902264202,-2.447950707504262,-0.018967899122743215,0.5559555868401419,-1.0445262895411471
1.2630303134674556,-2.574113668074041,-0.01892842052042774,0.54111363550579,-1.0785176101716334
1.2586798082484523,-2.6968705752694007,-0.018902059644818562,0.5263377314103901,-1.1120791203819032
1.254334000929312,-2.8162365237003755,-0.018887569217269636,0.511627037554611,-1.1451046298583272
1.2499903065133973,-2.932226429152145,-0.01888368657329422,0.49698083593902437,-1.1774849496177326
1.2456464323587075,-3.04485505675337,-0.018889132163138252,0.4823985345064253,-1.2091074960948704
1.2413003822851765,-3.154137050875164,-0.018902607606697527,0.46787967524832347,-1.2398558667324915
1.2369504611853213,-3.260086967045254,-0.018922793261609536,0.45342394362204014,-1.2696093836792768
1.2325952802558315,-3.3627193061983007,-0.018948345255691876,0.4390311794479247,-1.2982426018982314
1.2282337629799054,-3.4620485516253154,-0.018977891926275324,0.42470138948266073,-1.3256247776754033
1.2238651520044725,-3.5580892090337315,-0.01901002959922841,0.41043476189486844,-1.3516192932068418
1.2194890170731805,-3.6508558501855575,-0.01904331762939788,0.39623168290361055,-1.3760830326478959
1.2151052641954703,-3.740363160645593,-0.01907627261155994,0.3820927558792787,-1.3988657047599597
1.2107141462546438,-3.8266259922454395,-0.019107361656496534,0.36801882324983143,-1.4198091071259378
1.2063162752839849,-3.9096594209535525,-0.019134994610102905,0.354010991603331,-1.4387463268871625
1.201912636670313,-3.989478810937335,-0.019157515074000275,0.3400706604295475,-1.4555008731702594
1.1975046055795242,-4.066099885711452,-0.0191731900632927,0.3261995549975816,-1.4698857369533653
1.1930939659396056,-4.139538807386991,-0.019180198109913373,0.3123997639201764,-1.4817023752590703
1.1886829323644534,-4.209812265168232,-0.0191766155870612,0.29867378200364997,-1.4907396185372783
1.1842741754581547,-4.276937574385585,-0.019160400989449527,0.2850245590168063,-1.4967725033256825
1.179870851006356,-4.34093278749971,-0.0191293768522786,0.2714555550190934,-1.49956103734986
1.1754766336420843,-4.401816818654169,-0.019081208923997207,0.2579708028457896,-1.4988489120294848
1.1710957556724768,-4.459609583476912,-0.01901338211606903,0.24457497822155314,-1.4943621891826062
1.1667330518773404,-4.51433215590896,-0.018923172624247833,0.23127347770927925,-1.4858080064604033
1.1623940112511808,-4.566006943830274,-0.01880761542931408,0.21807250421521004,-1.4728733724805865
1.1580848368745857,-4.614657885092555,-0.018663466106295892,0.20497915893505925,-1.455224161836015
1.153812515396461,-4.660310665153112,-0.018487155442615127,0.19200153724371133,-1.4325044780976868
1.1495848980309988,-4.702992956674066,-0.018274734691838455,0.17914882380804803,-1.404336638267974
1.1454107955971973,-4.742734679962773,-0.018021808210783804,0.1664313787024399,-1.370322157297413
1.1413000910783255,-4.779568280617163,-0.01772344847505776,0.15386080090097384,-1.3300442936974848
1.137263874660747,-4.813529016665349,-0.017374085590841904,0.14144994734409438,-1.283072980475476
1.1333146085713701,-4.844655241089349,-0.016967358664610584,0.12921287373414644,-1.2289733389013893
1.129466332846845,-4.8729886558767745,-0.01649590850517162,0.11716464615649293,-1.1673194865508079
1.125734929391477,-4.898574499433636,-0.01595107806324801,0.10532094999009992,-1.0977160215324202
1.122138471884708,-4.921461609237902,-0.01532246547387263,0.09369739613395368,-1.0198303500850383
1.1186977058221397,-4.941702276090396,-0.01459723941802723,0.08230840258341816,-0.933439724214304
1.1154367302546961,-4.959351778959125,-0.013759069864090362,0.07116553540554703,-0.8384968978125774
1.1123839970490064,-4.974467473008879,-0.012786436272342442,0.06027528241838948,-0.7352163733080711
1.1095738156836008,-4.987107329850772,-0.01164992342683714,0.04963651620674129,-0.6241767648897522
1.107048675248919,-4.997327964422844,-0.010307819483438996,0.039238567028641605,-0.5064202071193
1.1048629419706482,-5.0051825452711896,-0.008698556849350798,0.02906213600045813,-0.3835048482937828
1.1030891452025258,-5.010719786789245,-0.0067257628734518835,0.01908779024348081,-0.2574381368927289
1.1018305457498943,-5.013987170993403,-0.0042185801929089375,0.009324246314402849,-0.13040995701125524
1.1012592668669787,-5.015050949001775,-0.0007490622672270335,-7.400276336455396e-05,-0.004321865643634626
