x,y,v_x,v_y,omega
2.375,32.48,0.0,3.948717948717949,-5.673469387755102
2.373452972142385,31.740033289978673,-0.01628450376436607,3.8404053146644017,-5.23820663015744
2.369082785789682,31.020134061840494,-0.02971745784303895,3.7374812973164233,-4.853508749946203
2.3623854362813024,30.319318695541316,-0.04078095803463889,3.6395225584643964,-4.511846421267625
2.3537737006973654,29.636679620299862,-0.049868890217329445,3.546151917761438,-4.207007993226821
2.3435922152291457,28.97137718171399,-0.05730464102708592,3.4570316463004,-3.9338380640105663
2.3321295580058687,28.32263266417648,-0.06335490869161961,3.371858011989144,-3.6880337651949526
2.3196279890861495,27.68972225796922,-0.06824055362121356,3.2903567901925683,-3.4659847399587136
2.3062913442825925,27.071971807586333,-0.07214518115307395,3.212279529627282,-3.2646465160650293
2.2922914646833568,26.468752212643324,-0.0752219725230924,3.13740041714122,-3.0814396214155746
2.2777734577956266,25.879475378809172,-0.07759915261090826,3.065513623218291,-2.9141686994852756
2.262860021282801,25.30359063602457,-0.07938438962936119,2.9964310376722487,-2.760957275628728
2.24765501075069,24.740581556546516,-0.08066835281391116,2.929980325254636,-2.6201948532286514
2.232246394994934,24.18996311728054,-0.0815276025098361,2.8660032459661626,-2.4904937841924135
2.216708712686326,23.65127916027396,-0.08202694810708895,2.804354196208359,-2.3706539334118557
2.2011051215470703,23.124100112755418,-0.08222137967455373,2.744898935565773,-2.2596335923465856
2.1854891131114487,22.608020934161587,-0.08215765648988259,2.6875134706850794,-2.1565254292056157
2.169905952015485,22.102659262518664,-0.0818756182044694,2.6320830729246563,-2.0605365185142617
2.154393887555329,21.607653736588432,-0.08140927084980629,2.578501410551466,-1.9709716902766115
2.138985176337312,21.122662473531015,-0.0807876893398437,2.5266697795265753,-1.887219592531698
2.123706947713972,20.64736168461959,-0.0800357698532114,2.4764964195410726,-1.8087409812701396
2.1085819379763615,20.181444413875106,-0.079174858963741,2.4278959040850774,-1.7350588462069723
2.0936291146578743,19.72461938645609,-0.07822328123086107,2.3807885950624668,-1.6657500556467577
2.0788642085690925,19.27660995530608,-0.07719678286158145,2.3351001538850107,-1.6004382630587415
2.0643001681479105,18.837153135982305,-0.07610890578243976,2.2907611021547307,-1.5387878653774871
2.049947548234182,18.405998720805613,-0.0749713038357542,2.247706426020976,-1.480498841043962
2.035814843353011,17.98290846451753,-0.07379401070288644,2.2058752191167565,-1.425302326395909
2.021908773928332,17.56765533453308,-0.07258566745163124,2.165210359666949,-1.372956813747768
2.008234532479303,17.16002281966017,-0.07135371622235315,2.1256582179425703,-1.3232448745706518
1.9947959957210886,16.75980429183636,-0.07010456544306688,2.087168390729132,-1.2759703275315277
1.9815959075546137,16.36680241602677,-0.06884373104614046,2.0496934598981333,-1.2309557845159138
1.9686360371514462,15.980828603945984,-0.06757595740825505,2.0131887725311812,-1.188040518722593
1.9559173156913938,15.601702507721711,-0.06630532111861177,1.9776122403558927,-1.1470786079436037
1.9434399547687289,15.229251550018528,-0.06503532017259703,1.9429241565197282,-1.107937313595259
1.931203549029296,14.863310487493067,-0.06376895076880115,1.909087027958807,-1.0704956622394401
1.9192071652199532,14.503721004764166,-0.06250877354007166,1.8760654218191015,-1.034643201463934
1.9074494195113503,14.15033133635799,-0.06125697076101179,1.8438258245617067,-1.000278906265257
1.895928544684787,13.802995914333714,-0.060015395834389286,1.8123365125359452,-0.9673102156498612
1.8846424485454434,13.461575039513779,-0.05878561615870178,1.7815674329370699,-0.9356521821634796
1.8735887647307576,13.125934574437473,-0.05756895031167515,1.7514900941819387,-0.9052267195741251
1.862764896918462,12.795945656330527,-0.05636650034406708,1.7220774648385202,-0.875961936053755
1.8521680572990598,12.47148442853901,-0.05517917986016878,1.6933038803353457,-0.84779154199384
1.8417953000584495,12.152431789015267,-0.054007738462045554,1.665144956756689,-0.8206543231059057
1.8316435505147375,11.838673154568909,-0.05285278305071163,1.637577511099708,-0.794493670744706
1.8217096304662994,11.530098239708376,-0.05171479640653091,1.6105794874322112,-0.7692571624862583
1.8119902802336287,11.226600849000029,-0.050594153411054665,1.584129888445127,-0.7448961869263161
1.8024821778135363,10.928078681963154,-0.04949113522149886,1.5582087119430386,-0.721365607462485
1.7931819555092545,10.634433149601861,-0.04840594166567557,1.5327968918600559,-0.6986234605063221
1.7840862143526346,10.345569201749548,-0.04733870208821919,1.5078762434274573,-0.6766306841580683
1.775191536593752,10.061395164469257,-0.04628948484738348,1.483429412154558,-0.6553508738809084
1.7665020162888623,9.78182382715472,-0.0451791499409311,1.4594267701037036,-0.6326404970197923
1.7580208556037418,9.506770981917668,-0.044096225691914924,1.4358663376547347,-0.6109211060915013
1.749742898859002,9.236154052076419,-0.043040161094820145,1.4127329238321156,-0.5901380892395346
1.741663096954118,8.969893284227155,-0.042010385272379686,1.3900120008969863,-0.5702404138084876
1.7337765106474028,8.707911625694166,-0.04100631269304473,1.3676896678713142,-0.551180354326487
1.7260783129140955,8.450134608684152,-0.0400273476575565,1.3457526164446159,-0.5329132439257351
1.7185637905125062,8.196490240709068,-0.03907288814864576,1.324188099082579,-0.5153972469480692
1.7112283448714416,7.946908900874838,-0.03814232912571998,1.3029838991724738,-0.49859315072101484
1.7040674923975914,7.701323241663292,-0.03723506533585974,1.2821283030543127,-0.48246417470083836
1.6970768642888705,7.459668095862188,-0.036350493703308034,1.2616100737994311,-0.4669757953660301
1.6902522059286444,7.221880388323321,-0.035488015351704295,1.2414184266096926,-0.45209558541044953
1.6835893759261222,6.987899052251908,-0.03464703730642383,1.2215430057209626,-0.4377930659326172
1.6770843448597648,6.75766494975154,-0.03382697391838998,1.201973862703986,-0.4240395704485932
1.6707331937731942,6.5311207963685405,-0.03302724804550965,1.1827014360644168,-0.41080811967248343
1.6645321124666537,6.3082110893975205,-0.03224729202333791,1.163716532051595,-0.39807330611257186
1.6584773976214384,6.088882039726304,-0.03148654845261454,1.1450103065928012,-0.3858111876238664
1.6525654507897936,5.873081507013744,-0.03074447082785723,1.1265742482762358,-0.3739991891407696
1.6467927762784702,5.66075893800787,-0.030020524028176447,1.1084001623119017,-0.3626160118877766
1.6411559789503538,5.4518653078247645,-0.029314184688837636,1.0904801554050048,-0.3516415494325568
1.6356517619652844,5.246353064020553,-0.028624941469788757,1.0728066214814351,-0.34105681000536664
1.630276924478296,5.044176073299919,-0.027952295235351445,1.0553722282094455,-0.3308438445622334
1.6250283593109747,4.8452895707147725,-0.027295759157505817,1.0381699042657881,-0.32098568011742434
1.6199030506094148,4.649650111216175,-0.02665485875364988,1.0211928272983906,-0.3114662579139588
1.614898071500324,4.457215523431419,-0.02602913186835647,1.0044344125411466,-0.3022703760398671
1.6100105817551216,4.267944865546248,-0.025418128607459987,0.9878883020396099,-0.29338363613300245
1.605243247166535,4.082002088388158,-0.02476434074608185,0.9694040890981789,-0.3275287254913671
1.6005957706950322,3.8995612588218016,-0.02415646421710662,0.9510256958108266,-0.3630305498535102
1.5960595603084502,3.720602530053146,-0.023593118799544947,0.9327503964908036,-0.39978523403370636
1.5916262883074186,3.545106563130844,-0.02307290226394652,0.9145755711123565,-0.43769072666787595
1.5872878951682252,3.3730545071728493,-0.02259439393808965,0.8964987021297057,-0.47664657212331385
1.5830365927438583,3.2044279801626914,-0.02215615789734995,0.87851737166142,-0.5165536850773778
1.5788648668922431,3.039209050246402,-0.02175674580386114,0.8606292590363706,-0.557314126789348
1.5747654795963741,2.8773802174614325,-0.021394699415813647,0.842832138700157,-0.5988308820770419
1.5707314706372437,2.7189243958289637,-0.02106855278556038,0.8251238784837264,-0.6410076359892164
1.5667561588771695,2.5638248957403142,-0.020776834162589047,0.8075024382388902,-0.6837485491359099
1.5628331432083125,2.412065406566999,-0.020518067614852503,0.7899658688486377,-0.7269580306011628
1.5589563032188587,2.263629979422138,-0.020290774379396907,0.7725123116235745,-0.7705405073154031
1.5551197996275028,2.118503009998438,-0.02009347395066558,0.7551399980995661,-0.8144001887074851
1.5513180745355253,1.9766692214046806,-0.019924684912256543,0.7378472502557737,-0.8584408253881028
1.5475458515449128,1.8381136469185826,-0.019782925515243743,0.7206324811768212,-0.9025654605361215
1.5437981357906412,1.7028216125689326,-0.019666714003404282,0.7034941961879075,-0.9466761725662155
1.5400702139354525,1.5707787194538305,-0.019574568682791334,0.686430994497366,-0.9906738075489009
1.5363576541762358,1.44197082569476,-0.019505007730017315,0.6694415713875879,-1.0344576997312795
1.5326563063125036,1.316384027917703,-0.019456548730321883,0.6525247210024934,-1.0779253783671874
1.528962301929493,1.1940046421426054,-0.01942770793294833,0.6356793397879975,-1.1209722589074436
1.5252720547511514,1.0748191839508685,-0.0194169992074878,0.6189044306513461,-1.1634913164230127
1.5215822612217815,0.9588143477869728,-0.01942293268061553,0.6021991079159866,-1.2053727389345759
1.517889901379466,0.8459769852346568,-0.019444013027971503,0.5855626031610107,-1.2465035580998594
1.5141922400896868,0.7362940820897599,-0.019478737390755663,0.5689942720484213,-1.2867672544639401
1.5104868287138862,0.6297527340306672,-0.019525592880831395,0.5524936022578204,-1.3260433342069566
1.5067715072951988,0.526340120662816,-0.019583053631664633,0.5360602226669301,-1.3642068740283544
1.5030444073524005,0.4260434776853472,-0.01964957734516052,0.519693913938007,-1.40112803048838
1.4993039553833647,0.3288500668951997,-0.019723601276269025,0.5033946206951039,-1.4366715097894047
1.4955488771912622,0.23474714370612304,-0.01980353758796895,0.4871624655057095,-1.470695993628131
1.4917782031605253,0.14372192181634347,-0.019887767998734887,0.4709977649130098,-1.5030535163955596
1.4879912746255446,0.0557615346083864,-0.01997463763264022,0.45490104780230156,-1.5335887886619617
1.4841877514934263,-0.029147007193429886,-0.020062447968604707,0.4388730764273307,-1.562138461585677
1.4803676213032917,-0.11101686214865225,-0.020149448769653376,0.42291487046975257,-1.5885303266677637
1.476531209928947,-0.1898614096262392,-0.02023382885502908,0.40702773455747937,-1.6125824451998159
1.4726791941597956,-0.26569430693306373,-0.02031370555709036,0.3912132897248624,-1.6341022019091438
1.468812616427229,-0.338529552845948,-0.020387112680450282,0.37547350935811263,-1.6528852778257317
1.4649329019811632,-0.40838155845685975,-0.02045198675182264,0.3598107602304253,-1.6687145384720883
1.4610418788648936,-0.4752652263611239,-0.020506151314173077,0.3442278492881625,-1.6813588353928732
1.4571418010873276,-0.5391960393484325,-0.020547298975994718,0.32872807689403494,-1.6905717222090932
1.4532353754516971,-0.6001901598923212,-0.020572970872747634,0.3133152972521723,-1.6960900914056884
1.4493257925716359,-0.6582645418689026,-0.02058053312789887,0.2979939867118306,-1.6976327458251217
1.4454167626927321,-0.7134370560575718,-0.02056714980793029,0.2827693205373025,-1.6948989306374023
1.4415125570459788,-0.7657266310649931,-0.020529751736841788,0.2676472584881973,-1.6875668692863381
1.4376180555976306,-0.8151534113353094,-0.02046500035103382,0.25263463909410716,-1.6752923733561371
1.4337388022415856,-0.8617389338110968,-0.02036924550207211,0.23773928170369144,-1.657707635542834
1.4298810687275634,-0.9055063245073569,-0.02023847569816171,0.22297009404638277,-1.634420372921431
1.4260519289669342,-0.9464805156246285,-0.02006825862424879,0.20833718087224154,-1.6050135731596262
1.4222593458670225,-0.9846884826581146,-0.019853668743245123,0.19385194579605258,-1.5690462217564125
1.418512273611802,-1.020159498956268,-0.019589197101179404,0.1795271731319076,-1.5260555714734527
1.4148207794950012,-1.0529254018996639,-0.01926863570724993,0.16537706837749447,-1.4755617800777874
1.4111961912929112,-1.0830208596692685,-0.01888492431474998,0.15141722393410686,-1.417076120398037
1.407651279193604,-1.1104836195779981,-0.01842993988848511,0.13766445931567378,-1.3501144923786528
1.4042004862341517,-1.135354707059662,-0.017894196526802277,0.12413646154393271,-1.2742186663417496
1.4008602292883205,-1.1576785275426218,-0.017266402903000716,0.11085112248725096,-1.1889885413372037
1.397649305931072,-1.1775028011506876,-0.01653279033119545,0.0978254418082097,-1.0941295610778508
1.3945894642467018,-1.1948782344863602,-0.015676069504279716,0.08507385646203336,-0.9895198177574821
1.391706228029681,-1.2098578131087692,-0.014673785411725909,0.07260591851065819,-0.8753001319968289
1.389030127414837,-1.2224956053810274,-0.013495694744529534,0.06042347382886675,-0.7519851624325055
1.386598581513649,-1.2328450526241,-0.012099525267975348,0.04851807609823372,-0.6205805672049245
1.3844588604309989,-1.2409569740831827,-0.010423854549393442,0.03687057083951521,-0.48266685539621
1.3826729856358966,-1.2468780966650215,-0.00837482750431446,0.025457035285097025,-0.34037807735945874
1.3813268711167794,-1.2506522258442914,-0.005794799012708374,0.014270640286159314,-0.19618289704658434
1.3805533500315583,-1.2523307811925193,-0.0023475282001468017,0.0033983633793647113,-0.05240701076433252
