x,y,v_x,v_y,omega
2.375,32.48,0.0,2.2051282051282053,-4.6938775510204085
2.3743528828503506,32.064922564743476,-0.006811759469992651,2.164107955466719,-4.4774782626531
2.3724834256155356,31.65752808952024,-0.0128667377385861,2.1242549416200003,-4.275344749901552
2.3695280308162605,31.257600317211857,-0.018242681201152723,2.085511082678765,-4.086216420712182
2.365609156948684,30.864933632908816,-0.02300862266807384,2.047822436300646,-3.9089673696216836
2.3608368702096,30.479332316316732,-0.027225974585442507,2.0111387909844356,-3.7425897032206565
2.3553102031594,30.10060986665996,-0.030949468048238362,1.975413310665817,-3.586179213845843
2.3491183472958133,29.728588390919967,-0.03422796209478348,1.9406022234393585,-3.4389230293059727
2.342341702273987,29.363098047662316,-0.03710514339812272,1.9066645476937942,-3.300088932335571
2.335052801018959,29.003976539868894,-0.03962013297059594,1.8735618501317077,-3.169016096428588
2.32731712708727,28.651068651152272,-0.04180801367875905,1.8412580310958984,-3.0451070275200145
2.319193838230153,28.304225820525843,-0.04370029008036879,1.8097191333927956,-2.927820535793348
2.3107364081005346,27.963305751567987,-0.04532529023140542,1.778913171426767,-2.8166655903397966
2.3019931963581777,27.628172052375504,-0.04670851758287408,1.7488099779677628,-2.7111959327581387
2.2930079560041876,27.29869390317086,-0.0478729598275478,1.7193810662916575,-2.611005345059509
2.2838202855717724,26.974745748824432,-0.04883936051366844,1.6905995057760086,-2.515723483213345
2.2744660327773647,26.656207013890498,-0.049626458374833315,1.6624398093180461,-2.425012200959527
2.264977655364722,26.342961838043394,-0.05025119860034939,1.6348778311777983,-2.3385622996108735
2.255384544129767,26.0348988300471,-0.05072891966233676,1.6078906740463246,-2.25609064887421
2.245713312475459,25.7319108386038,-0.051073518804061795,1.5814566043042142,-2.1773376315445314
2.235988056297215,25.433894738610316,-0.05129759886166473,1.5555549745745356,-2.1020648715315526
2.2262305875264743,25.140751231510503,-0.05141259872508323,1.5301661527919237,-2.0300532102692097
2.216460644251499,24.8523846585699,-0.051428909432549845,1.5052714571091612,-1.9611009013059588
2.206696079980789,24.568702826020015,-0.051355977627553444,1.480853096047507,-1.8950219969157405
2.196957357487144,24.28962082773585,-0.05115689072660537,1.456852149049,-1.8291938114656487
2.187261973584795,24.01505672871283,-0.05089978192970168,1.433296261719621,-1.7662620691914617
2.177620374073324,23.744927440736703,-0.050590739243678254,1.41016992750276,-1.7060657827938412
2.168041901068314,23.47915275578326,-0.05023529238800446,1.3874583351650625,-1.6484546114872336
2.1585348941067815,23.2176552177004,-0.049838465101810024,1.3651473288650398,-1.5932880434255359
2.149106781809238,22.960360001212415,-0.04940482224075545,1.343223371008522,-1.5404346494788317
2.1397641650353316,22.707194797739007,-0.048938512221416375,1.3216735076588946,-1.489771401386524
2.130512892370179,22.45808970756361,-0.04844330530650349,1.3004853362926678,-1.4411830480674501
2.1213581286901104,22.21297713792326,-0.04792262816790335,1.2796469757110125,-1.3945615445329755
2.112304417478223,21.971791706626817,-0.047379595115123574,1.2591470379357517,-1.3498055284362909
2.103355737490619,21.734470150839172,-0.04681703633333879,1.2389746019342276,-1.3068198398102115
2.09451555431243,21.50095124069741,-0.04623752343707236,1.2191191890316821,-1.2655150800053214
2.085786867287774,21.27117569745056,-0.04564339261193574,1.1995707398825195,-1.225807206247752
2.077172252258856,21.04508611583781,-0.0450367655872002,1.1803195928832337,-1.187617158597691
2.068673900505772,20.822626890441505,-0.04441956865579092,1.1613564639200318,-1.150870516411426
2.0602936542396337,20.603744145770527,-0.04379354993513854,1.142672427353401,-1.1154971816962047
2.0520330389668224,20.388385669847686,-0.04316029504182052,1.124258898150187,-1.0814310870026156
2.0438932930110485,20.1765008510907,-0.042521241334750416,1.1061076150812377,-1.0486099257272399
2.0358753944520207,19.968040618291585,-0.041877690865542334,1.0882106249094563,-1.0169749029021866
2.027980085714561,19.76295738351276,-0.04123082216034647,1.0705602674992396,-0.98647050473058
2.0202078960195813,19.561204987730868,-0.04058170094470339,1.0531491617838413,-0.9570442852905762
2.0125591618882313,19.362738649070835,-0.03993128991161388,1.0359701925322524,-0.9286466689771791
2.0050340458724523,19.1675149134834,-0.03928045762290365,1.0190164978617808,-0.9012307673828833
1.9976325536689075,18.975491607729097,-0.038629986624934734,1.0022814574466927,-0.8747522094366503
1.9903545497586317,18.78662779454084,-0.0379805808516535,0.9857586813770853,-0.8491689837273732
1.983203996519486,18.601101697033755,-0.03728840061303587,0.9671476081711493,-0.8696254683133218
1.9761817354465028,18.419100956987297,-0.03663013699731651,0.9486496554758042,-0.8917426120113096
1.9692813866234196,18.240604364979134,-0.036005113771980075,0.9302618393469421,-0.9154031800238238
1.9624967050396562,18.065591266842546,-0.03541258710974003,0.9119812989329684,-0.9404922206865244
1.9558215928435179,17.894041540648196,-0.03485175179697911,0.893805292586495,-0.9668968108460996
1.9492501104666426,17.725935574384106,-0.03432174690697137,0.8757311944039138,-0.9945058052971151
1.942776486718107,17.56125424425303,-0.03382166097234906,0.8577564911863951,-1.023209589225576
1.936395127940382,17.399978893507527,-0.033350536687916085,0.8398787798188673,-1.0528998326037355
1.9301006263137186,17.2420913117434,-0.03290737517169686,0.8220957650666503,-1.0834692454696897
1.9238877673905508,17.087573714571768,-0.03249113980901761,0.8044052577926624,-1.1148113330062484
1.9177515369370592,16.936408723589317,-0.032100759701421525,0.7868051736015516,-1.1468201493061818
1.9116871271551912,16.7885793465647,-0.0317351327392929,0.7692935319207608,-1.1793900486747826
1.905689942355111,16.64406895775664,-0.031393128314182554,0.751868455532475,-1.2124154332753432
1.8997556041452874,16.502861278276463,-0.031073589683960155,0.7345281705746777,-1.245790495868069
1.8938799562052124,16.364940356403615,-0.03077533600104087,0.7172710070342299,-1.279408956327558
1.888059068704067,16.23029054775816,-0.030497164011014828,0.7000953997600542,-1.3131637905476232
1.8822892424275492,16.098896495228082,-0.03023784942601686,0.6829998900302373,-1.3469469502542615
1.8765670126745402,15.97074310854245,-0.0299961479740782,0.6659831277132647,-1.3806490721472502
1.8708891529853684,15.845815543372968,-0.029770796122465294,0.6490438740707679,-1.414159174677574
1.8652526787641228,15.72409917983681,-0.02956051146959467,0.6321810052572286,-1.4473643406409968
1.8596548508588464,15.60557960026216,-0.029363992796474368,0.6153935165811826,-1.48014938362724
1.8540931791655333,15.490242566064687,-0.02917991976471424,0.598680527602752,-1.5123964962091885
1.8485654263247135,15.378073993567796,-0.029006952243917205,0.5820412881539894,-1.543984877587655
1.8430696115831093,15.269059928581903,-0.028843729246651847,0.5654751853817205,-1.5747903382253836
1.8376040148974835,15.163186519537522,-0.02868886744414656,0.5489817519275481,-1.6046848788111217
1.8321671813634148,15.060439988943624,-0.028540959230260537,0.5325606753766351,-1.633536240694076
1.8267579260585067,14.96080660291587,-0.028398570295087917,0.5162118091260558,-1.661207424726327
1.8213753393975232,14.864272638488607,-0.028260236662634917,0.49993518484511096,-1.6875561752542072
1.8160187931063438,14.770824348389521,-0.028124461139251405,0.48373102672423735,-1.7124344258218667
1.8106879469325938,14.680447922915786,-0.02798970911074745,0.4675997677361437,-1.7356877030098459
1.8053827562235345,14.593129448505405,-0.02785440361619453,0.4515420681625973,-1.7571544847555107
1.8001034805165652,14.508854862546052,-0.027716919615061474,0.4355588366727046,-1.776665509529692
1.7948506933047652,14.427609903906198,-0.027575577351253967,0.4196512542731051,-1.7940430329306927
1.7896252931596688,14.349380058609057,-0.027428634702392422,0.403820801486264,-1.8091000286827628
1.7844285164163955,14.274150499998775,-0.0272742783846937,0.388069289148288,-1.8216393318047193
1.779261951652932,14.201906022670986,-0.027110613862290116,0.37239889324950115,-1.8314527230070132
1.77412755622658,14.132630969357134,-0.026935653783523368,0.3568121942647421,-1.838319955411547
1.7690276751674237,14.066309149866264,-0.026747304733911056,0.3413122214286316,-1.8420077277938511
1.7639650627726273,14.00292375110325,-0.026543352053416524,0.32590250239255186,-1.8422686131853219
1.7589429072985785,13.942457237105405,-0.02632144241025651,0.31058711863741395,-1.838839958503734
1.753964859213505,13.884891237980945,-0.026079063748410878,0.2953707668832015,-1.831442780842623
1.7490350635558785,13.830206426610179,-0.025813522121342275,0.2802588264932967,-1.81978070048281
1.7441581970507656,13.778382382009628,-0.02552191477458324,0.26525743245986455,-1.8035389714982473
1.7393395107782745,13.729397438401492,-0.02520109862005993,0.25037355288893837,-1.7823837007226464
1.7345848793823626,13.683228519336065,-0.024847652915855795,0.23561506885238412,-1.7559613886584897
1.7299008580813289,13.639850956774051,-0.024457834463445783,0.22099085285303233,-1.7238989870358064
1.725294749135705,13.599238295982065,-0.02402752285891202,0.20651083969417805,-1.685804754640874
1.72077468001248,13.561362088621827,-0.023552152122404822,0.19218607988728756,-1.6412703158777766
1.7163496963644935,13.526191678796277,-0.02302662311955673,0.17802876038168014,-1.5898744985366022
1.712029874292829,13.493693990433606,-0.02244518816112311,0.1640521697516864,-1.531189764496586
1.707826458453516,13.463833329739671,-0.0218012943579592,0.15027057439497998,-1.464792366285958
1.7037520358454334,13.43657122412477,-0.021087364674488525,0.13669895839346966,-1.3902777738664662
1.6998207602632867,13.411866329588687,-0.020294483558636903,0.1233525630389688,-1.307283405986802
1.6960486504892813,13.389674452251086,-0.019411935115103716,0.1102461457778951,-1.2155211916022304
1.6924539979672628,13.369948745606678,-0.01842651248509082,0.09739287153168048,-1.1148227575842455
1.6890579394273706,13.35264015936454,-0.017321472145354608,0.0848027731224048,-1.005199577736605
1.6858852805175792,13.337698218508251,-0.01607493743139444,0.07248081483852702,-0.8869182106746499
1.6829657045218513,13.325072181279811,-0.014657441471006295,0.060424840197675175,-0.7605851201663959
1.6803355803793973,13.314712522837592,-0.013028075817983424,0.048624196036224546,-0.6272245162863966
1.678040740636206,13.3065724528367,-0.011128132005084938,0.037060751341563836,-0.48831576387180725
1.6761409948819184,13.300608689405323,-0.008869191724256093,0.025715705830821764,-0.34573950427883826
1.6747184839168046,13.29677963757182,-0.00610460790852143,0.014590102942872305,-0.20157775212470105
1.6738986092378723,13.295035098981359,-0.002525651869712724,0.00377346116723452,-0.05774701572152066
