x,y,v_x,v_y,omega
2.375,32.48,0.0,2.4615384615384617,-4.816326530612245
2.3743216827411358,32.041139956071405,-0.00753685843182581,2.4146842487792117,-4.584547148735439
2.3723646723098195,31.61058748488836,-0.014207701916129148,2.369232097699088,-4.368882842978454
2.369276496756076,31.188096693635632,-0.020105359792135662,2.325110027331217,-4.167841403845319
2.365188951026961,30.77343417263893,-0.025311814975806358,2.282251317076579,-3.980096928802903
2.36021992209568,30.36637809606496,-0.02989961759398468,2.240593978189764,-3.804468418688482
2.354474978195289,29.966717411525323,-0.033933092410361715,2.200080294472855,-3.6399014963802805
2.3480487562418246,29.574251107126383,-0.03746937373923728,2.1606564210709376,-3.485452736941991
2.341026176021184,29.188787546320377,-0.04055929537899372,2.1222720323291386,-3.340276191478383
2.33348350519989,28.81014386239295,-0.04324815819094001,2.084880011308913,-3.203611761230837
2.3254892955012143,28.438145405637094,-0.0455763940165669,2.048436174867266,-3.0747751381402515
2.3171052073089142,28.072625237266543,-0.0475801414534337,2.0128990292499718,-2.9531490763551322
2.308386737398998,27.713423664954533,-0.04929174643452833,1.9782295519945832,-2.8381757983717257
2.2993838623590572,27.360387815578857,-0.050740198453699294,1.9443909966240422,-2.7293503715169924
2.2901416084582995,27.01337124133738,-0.05195151155472002,1.9113487171701318,-2.62621491676532
2.280700557218254,26.672233555889942,-0.052949057779117945,1.879070010023615,-2.528353533542964
2.2710972946550636,26.33684009759919,-0.053753859589663826,1.8475239709847548,-2.4353878421066137
2.261364811079426,26.00706161729758,-0.05438484680631078,1.81668136569977,-2.3469730599856513
2.2515328574173012,25.682773988311073,-0.05485908277285124,1.7865145119280965,-2.26279454140968
2.241628263226964,25.363857936730373,-0.05519196378645043,1.756997172301925,-2.1825647190503257
2.231675220914125,25.050198790145288,-0.055397395245099554,1.7281044564212376,-2.1060203961480504
2.221695540068775,24.74168624325211,-0.055487947481011844,1.6998127312807285,-2.0329203444608326
2.2117088753502676,24.438214138912926,-0.05547499383573398,1.6720995391546174,-1.9630431696972441
2.201732930918602,24.139680263393217,-0.055368833182773566,1.644943522175508,-1.8961854113735372
2.1917836440396457,23.845986154633053,-0.05517879880562933,1.618324352937425,-1.8321598485196215
2.1818753501715022,23.55703692252066,-0.05491335528485338,1.592222670533635,-1.7707939864811273
2.1720209315611436,23.272741080236816,-0.05458018483024217,1.5666200215090493,-1.7119287033303163
2.1622319511387285,22.993010385827,-0.05418626430770495,1.5414988052666845,-1.6554170371952224
2.1525187732865327,22.71775969323626,-0.053737934050025145,1.5168422235193355,-1.6011230982169864
2.1428906728757933,22.446906812111493,-0.053240959402633216,1.492634233422492,-1.5489210909105693
2.1333584765920914,22.180375502194025,-0.05267233263849823,1.4688247656605173,-1.4967985213261366
2.1239310462649454,21.918092072225164,-0.052076893218680594,1.4454355673268324,-1.4468831423920603
2.1146128867828375,21.659982143361,-0.05145821213807327,1.4224525311638854,-1.3990566446077397
2.1054078910641376,21.405973821765535,-0.05081951806970284,1.399862153230148,-1.3532082578333053
2.09631939877639,21.155997592974202,-0.050163729571942255,1.377651500006895,-1.3092341936070366
2.0873502495438565,20.909986221983857,-0.04949348412287456,1.3558081776635638,-1.2670371342877091
2.078502831184479,20.667874658695855,-0.048811164314649665,1.3343203033142554,-1.226525764626105
2.0697791234608625,20.429599948367404,-0.04811892150331521,1.3131764781129973,-1.1876143418258833
2.061180737779658,20.19510114675283,-0.0474186971767326,1.2923657620489106,-1.1502223005581862
2.052708953229071,19.96431923964012,-0.046712242274231576,1.2718776503145701,-1.1142738897531381
2.04436474930444,19.737197066509946,-0.04600113466611415,1.2517020511317702,-1.0796978383103282
2.0361488356364195,19.5136792480645,-0.045286794978560065,1.231829264928766,-1.0464270471542543
2.0280616790046904,19.293712117391436,-0.04457050092953945,1.2122499647719533,-1.0143983053137422
2.0201035278919006,19.077243654545292,-0.0438534003236806,1.1929551779629912,-0.9835520279301702
2.0122744348073143,18.86422342434385,-0.04313652283839187,1.1739362687196555,-0.9538320143011099
2.00457427658709,18.654602517191204,-0.042420790719652955,1.1551849218653132,-0.9251852242465243
1.997002772857901,18.448333492752113,-0.04170702849355957,1.1366931274579013,-0.8975615712463578
1.9895595028324937,18.245370326314376,-0.04099597178874256,1.1184531662947477,-0.870913730943364
1.9822439205895548,18.045668357686743,-0.04028827535502546,1.1004575962345273,-0.8451969637351933
1.9750553689756531,17.84918424249024,-0.03958452035499244,1.0826992392821737,-0.82036895029677
1.9679930922539388,17.65587590571004,-0.03888522099738831,1.0651711693866865,-0.7963896389792589
1.961056247612482,17.46570249738374,-0.03819083057435409,1.0478667009055505,-0.7732211041267374
1.954243915634541,17.27862435030988,-0.037501746958322195,1.0307793776929197,-0.7508274144371845
1.947555109823494,17.094602939668047,-0.03681831760886915,1.013902962771885,-0.7291745105715502
1.9409887852665566,16.913600844448716,-0.036140844134878794,0.9972314285540269,-0.7082300912843815
1.934548477516767,16.735808224845933,-0.03541813086278529,0.9782421225879899,-0.7376981058082153
1.9282345760111987,16.56142398834433,-0.034736330310194,0.9593605052075689,-0.7685472714020488
1.9220398233643463,16.39042899533386,-0.03409425465483135,0.940583861575444,-0.8006674526742779
1.9159571791488375,16.222804584920894,-0.0334906810730462,0.9219095874575132,-0.8339502226984423
1.9099798258322105,16.058532555281502,-0.03292435577836324,0.9033351863135164,-0.8682886246034168
1.9041011740226041,15.897595144503253,-0.03239399766170782,0.8848582667781332,-0.9035769350260882
1.8983148670929275,15.739975011845342,-0.031898301556921874,0.8664765405319768,-0.939710428408589
1.8926147852490853,15.585655219346624,-0.03143594115243672,0.848187820564907,-0.9765851411036585
1.8869950491043097,15.43461921371043,-0.031005571567290613,0.829990019837244,-1.0140976342251522
1.8814500228186188,15.286850808393773,-0.03060583160705309,0.8118811503478305,-1.0521447541457183
1.8759743168598482,15.14233416582653,-0.030235345712620435,0.7938593226215204,-1.0906233894997137
1.8705627904406097,15.001053779683659,-0.029892725612252646,0.7759227456326034,-1.1294302234959916
1.8652105536838923,14.862994457130075,-0.029576571684605417,0.7580697271849913,-1.1684614802816047
1.8599129695688719,14.728141300953698,-0.029285474037844518,0.740298674774742,-1.207612664023034
1.8546656557078194,14.596479691497052,-0.029018013307184773,0.7226080969657768,-1.2467782892854777
1.849464486004842,14.467995268291734,-0.02877276117034089,0.7049966053155357,-1.285851601192188
1.8443055922475473,14.342673911292884,-0.028548280577378553,0.6874629168939215,-1.324724283733962
1.8391853656836386,14.220501721602261,-0.028343125688274694,0.6700058574463235,-1.363286154472803
1.8341004586359653,14.1014650015587,-0.02815584150809508,0.652624365259918,-1.4014248437426577
1.829047786211694,13.98555023406313,-0.02798496320603009,0.6353174958019684,-1.439025456293313
1.8240245281641023,13.872744060992083,-0.02782901510054617,0.6180844272096634,-1.47597021315055
1.819028130969083,13.763033260538116,-0.027686509288554453,0.6009244667233306,-1.5121380712764412
1.8140563101828597,13.656404723297818,-0.0275559438917064,0.5838370581688609,-1.5474043184087691
1.8091070531527196,13.55284542690762,-0.027435800887627402,0.5668217906111112,-1.5816401402394746
1.8041786221589122,13.452342409003982,-0.02732454348801074,0.5498784083181754,-1.6147121568616103
1.7992695580732883,13.354882738257619,-0.02722061301892166,0.5330068221969974,-1.6464819251774425
1.7943786846289689,13.260453483200319,-0.02712242525129382,0.5162071228841123,-1.6768054037248739
1.789505113405435,13.169041678527606,-0.02702836612130664,0.49947959570160494,-1.7055323761572911
1.7846482496451315,13.080634288519853,-0.026936786770954298,0.48282473771786577,-1.7325058294212732
1.779807799031184,12.995218167178546,-0.02684599782846009,0.46624327718552905,-1.757561282543852
1.774983775571382,12.912780014621998,-0.026754262836008038,0.449736195665017,-1.7805260619048693
1.7701765107514997,12.833306329225852,-0.026659790718238076,0.43330475318104256,-1.801218518986309
1.7653866641416793,12.75678335492752,-0.026560727168656813,0.41695051680040285,-1.8194471869396642
1.760615235663423,12.683197023040009,-0.02645514481196877,0.4006753930608419,-1.8350098730096223
1.7558635797523698,12.612532887839741,-0.02634103197750873,0.38448166471992173,-1.8476926850623907
1.7511334216841807,12.544776055105682,-0.026216279891260498,0.3683720323251626,-1.8572689924253598
1.7464268763686022,12.479911102695176,-0.026078668059613036,0.35234966112491023,-1.8634983242881258
1.7417464699615444,12.41792199214905,-0.02592584757436293,0.33641823383203423,-1.8661252135245467
1.737095164698823,12.358791970230989,-0.02575532201142958,0.32058200970198497,-1.8648780006603545
1.7324763874210891,12.302503459233876,-0.025564425518946866,0.30484589026592784,-1.8594676228176215
1.7278940623418384,12.249037934845454,-0.025350297583841913,0.2892154918276528,-1.8495864272301803
1.7233526487160438,12.198375790382439,-0.025109853813874247,0.27369722442805344,-1.8349070703692825
1.7188571842063753,12.150496186315923,-0.024839751849108065,0.25829837631100105,-1.8150815947464392
1.7144133349335466,12.105376884281181,-0.02453635118232252,0.2430272018528109,-1.7897408202074654
1.7100274534630613,12.062994065282474,-0.024195665156404415,0.2278930092439499,-1.7584942508622556
1.7057066463638861,12.023322132702276,-0.02381330261220932,0.21290624164712826,-1.7209307909267317
1.7014588535418338,11.98633350220167,-0.023384395410591452,0.19807854169293365,-1.6766206939788724
1.6972929424087515,11.95199838293793,-0.02290350606810154,0.1834227834597405,-1.6251193554414882
1.6932188212708104,11.920284558122987,-0.022364506575689447,0.16895304781739967,-1.5659738161821353
1.6892475783840752,11.891157178331657,-0.02176041438803399,0.1546845054195848,-1.498733196354554
1.6853916563808982,11.86457858879152,-0.021083163425045518,0.14063315613750255,-1.4229647380827273
1.6816650769301353,11.840508222814332,-0.020323274916763185,0.12681535472015795,-1.3382776945263848
1.6780837386802747,11.818902607916787,-0.019469372303908154,0.11324703303033962,-1.2443578855697923
1.6746658244843713,11.79971554824769,-0.018507452095019923,0.09994251884850353,-1.1410161139799486
1.6714323742714168,11.782898562983245,-0.017419772493361872,0.08691287297864614,-1.028253242037259
1.6684081118168825,11.76840166526081,-0.016183143668130378,0.07416376838173787,-0.9063424261848317
1.6656226641189917,11.756174537670468,-0.01476627519732125,0.06169320484429677,-0.775922846593844
1.6631123966546848,11.746168056017009,-0.013125585517200998,0.04948992463859734,-0.6380868307378325
1.6609232532598162,11.738335862475697,-0.01119822998133798,0.0375344480426459,-0.4944228257068026
1.6591154101612675,11.732635170854113,-0.008888915558092816,0.025806569974947922,-0.3469561938138028
1.657772007679271,11.729024823155651,-0.0060377786863115915,0.014308404452416896,-0.19792481020059635
1.6570217030377863,11.72745409172023,-0.002298939552409027,0.0031441670522609592,-0.04936745984740956
