x,y,v_x,v_y,omega
2.375,32.48,0.0,3.8974358974358974,-6.163265306122449
2.3729669138168275,31.673613806422473,-0.019362725554022724,3.7824326128262213,-5.650117892122756
2.367251374745617,30.89072055504328,-0.03507097988607497,3.673693590785148,-5.20190513662685
2.3585507188188357,30.130061312335418,-0.04779240989279797,3.5706801492897418,-4.808140016915282
2.347435932674791,29.390483460652877,-0.05806269624095947,3.4729184381630214,-4.460322163590298
2.334376361283526,28.670928182644392,-0.06631417415204083,3.3799889714415996,-4.151511574194073
2.3197591205322423,27.97041991582025,-0.07289764252685309,3.2915183316454417,-3.8760040763208026
2.30390445865036,27.28805737881791,-0.07809913730059541,3.207172496948293,-3.6290818171592556
2.287077990677835,26.623005869358877,-0.08215293862821603,3.1266514026615555,-3.4068197216215808
2.2695005001901065,25.97449060411245,-0.08525173268348524,3.0496844568282184,-3.205934139479306
2.2513558348093605,25.341790921692628,-0.08755460427600086,2.976026804312946,-3.0236635956173927
2.2327972983125,24.724235207708336,-0.08919336236076254,2.9054561860136396,-2.857674179577064
2.2139528499026446,24.121196429089668,-0.09027757487595615,2.8377702770212885,-2.705983995825823
2.1949293517905337,23.532088186482916,-0.09089859762034026,2.7727844144715648,-2.566902467364698
2.1758160535478988,22.956361210175118,-0.0911328142142791,2.7103296456027035,-2.4389812929711603
2.1566874614064457,22.393500238053964,-0.09104425379955654,2.6502510412654545,-2.3209746059873586
2.137605709651773,21.843021224439237,-0.09068671529256461,2.5924062312557554,-2.2118064420624304
2.118622527217294,21.304468836890738,-0.0901054983691423,2.536664126349002,-2.1105440453476447
2.099780873837342,20.77741420478167,-0.0893388195351601,2.482903798499245,-2.016375863448153
2.081116305422093,20.261452888878285,-0.08841897489578225,2.431013495818728,-1.928593326956633
2.062658116734814,19.756203045649592,-0.08737329831640048,2.380889773025984,-1.8465756985236974
2.0444303002793096,19.26130376374526,-0.08622495364078564,2.3324367213009536,-1.7697774230028929
2.0264523530071807,18.776413553177925,-0.08499359180805843,2.285565284102256,-1.6977175244730283
2.008739956621983,18.301208970346522,-0.08369589757477988,2.240192647625393,-1.6299706855008527
1.9913055525766095,17.835383364232555,-0.08234604571449108,2.1962416963171285,-1.566159714569344
1.974158829088763,17.37864573096371,-0.08095608274118764,2.1536405252909097,-1.5059491634665565
1.9573071344489028,16.930719665527533,-0.07953624716224497,2.112322002672691,-1.4490399008756938
1.9407558284187418,16.491342400778066,-0.07809523883928747,2.0722233758936897,-1.3951644839247184
1.9245085815010754,16.060263925047984,-0.07664044609086904,2.033285916773733,-1.3440831979599177
1.908567630212813,15.63724617068852,-0.07517813760686769,1.99545460093543,-1.2955806577817799
1.8929339951409672,15.222062266734039,-0.07371362498214022,1.9586778176786712,-1.2494628821710265
1.8776076674491158,14.81449584964848,-0.07225140065453833,1.9229071069456998,-1.205554768632396
1.8625877685842323,14.414340426773599,-0.07079525520149642,1.8880969204341274,-1.1636979075944303
1.8478726871745144,14.021398787678503,-0.06934837727200757,1.854204404281058,-1.1237486853762324
1.8334601964788855,13.635482459118137,-0.06791343887683947,1.8211892010557764,-1.0855766335022896
1.8193475552247438,13.25641119975499,-0.06649266830546262,1.7890132690694427,-1.0490629887593124
1.8055315942334091,12.884012531192017,-0.06508791256439155,1.7576407172445703,-1.0140994340195784
1.7920087908671998,12.518121302212354,-0.06370069092331729,1.727037653990322,-0.9805869945232788
1.7787753330257101,12.158579283429194,-0.06233224090039187,1.6971720487064352,-0.9484350681941403
1.765827174161482,11.805234789822283,-0.06098355780654553,1.6680136046927339,-0.9175605718000907
1.75316008056854,11.457942328880073,-0.059655428792901324,1.6395336423759441,-0.8878871874786137
1.7407696720144084,11.11656227228282,-0.05834846219882661,1.6117049918836066,-0.8593446964176229
1.728651456631577,10.78096054925469,-0.05706311287575966,1.5845018940985758,-0.8318683883927571
1.7168008608533785,10.45100835988536,-0.05579970405946508,1.5578999094188652,-0.8053985374725877
1.7052132550680104,10.12658190687593,-0.05455844627737352,1.5318758335280853,-0.7798799355647579
1.6938839755698252,9.807562144302434,-0.053339453705341405,1.5064076195528486,-0.7552614766299199
1.6828083433064058,9.493834542114502,-0.05214275832722328,1.4814743060464857,-0.7314957853705513
1.671996193258694,9.185290624072685,-0.050830099270033215,1.4570391991136917,-0.704581457339773
1.6614560476510467,8.88182588236214,-0.04955223985041626,1.433101198129599,-0.6789311089114098
1.651180675111509,8.583337833047327,-0.048308451002323054,1.4096421286781335,-0.6544701356479364
1.6411630006041742,8.289727719116062,-0.047097972877057984,1.3866446706672355,-0.6311291735596208
1.6313961110210935,8.000900336358729,-0.04592002315228127,1.364092307974041,-0.6088436726698176
1.6218732591589484,7.716763869451292,-0.04477380410624345,1.3419692816206088,-0.587553509900469
1.6125878663220319,7.4372297375308705,-0.043658508626296194,1.3202605461929247,-0.5672026372354845
1.6035335237600399,7.162212448610152,-0.04257332529743624,1.2989517292424837,-0.5477387615771346
1.5947039931206588,6.891629462229165,-0.041517442696669425,1.2780290934335667,-0.5291130531116454
1.5860932060723159,6.625401059790466,-0.04049005300183491,1.2574795012207,-0.5112798793523433
1.5776952632312002,6.363450222066991,-0.039490355008790466,1.2372903818600132,-0.4941965623384114
1.569504432508269,6.105702513411263,-0.03851755663817531,1.2174497005754994,-0.4778231567401014
1.5615151469760464,5.852085972230572,-0.037570877002039677,1.1979459297167843,-0.46212224686187664
1.5537220023412555,5.602531007325606,-0.03664954809120647,1.178768021759073,-0.4470587607475176
1.5461197540973886,5.356970299719993,-0.03575281613609611,1.1599053840086682,-0.4325997997792579
1.5387033144209932,5.115338709635743,-0.034879942686716826,1.1413478548889473,-0.4187144823295864
1.5314677488664863,4.877573188294733,-0.034030205451444626,1.1230856816921175,-0.4053738001721037
1.5244082729065442,4.643612694249452,-0.03320289892895647,1.105109499691505,-0.39255048648905444
1.5175202483583758,4.413398113967482,-0.03239733486312299,1.0874103125177197,-0.38021889442987045
1.5107991797303426,4.186872186413588,-0.03161284254671715,1.0699794737098298,-0.3683548852789901
1.5042407105183186,3.96397943139128,-0.03084876899636858,1.0528086693597722,-0.3569357253838803
1.4978406194767868,3.7446660814221637,-0.030104479018218826,1.035889901774684,-0.3459399910769028
1.4915948168858533,3.5288800169566095,-0.02937935518114964,1.0192154740877286,-0.33534748089858885
1.4854993408320503,3.3165707047232935,-0.02867279771221119,1.002777975753361,-0.3251391344960296
1.4795503535179408,3.1076891390380617,-0.02798422432692536,0.9865702688678888,-0.3152969576293375
1.473750029829147,2.9023301492928972,-0.027256953661587917,0.9692296334670258,-0.3329772528542204
1.4680983468324738,2.7006007490880144,-0.026568598687682212,0.952002749436633,-0.35254744688553186
1.4625871931656764,2.502477382593554,-0.025918579091338496,0.9348864552725012,-0.37389647249529234
1.4572085869552125,2.3079371449069193,-0.025306241960698497,0.9178777131716518,-0.39691626583793455
1.4519546903089666,2.116957756614223,-0.02473086895592864,0.9009736039016423,-0.42150152426355786
1.4468178223666097,1.9295175393861541,-0.024191682876042557,0.8841713220799738,-0.44754947176547866
1.4417904710296625,1.7455953925238816,-0.023687853666309176,0.8674681718464138,-0.4749596311104585
1.4368653034845393,1.5651707703740882,-0.023218503906292935,0.8508615629135098,-0.5036336017257008
1.4320351756237952,1.3882236605349583,-0.022782713815080034,0.8343490069829786,-0.5334748424359426
1.4272931404634808,1.2147345627773518,-0.02237952580696252,0.8179281145180406,-0.5643884581567963
1.4226324556478356,1.0446844686072225,-0.022007948627754244,0.8015965918641529,-0.5962809896568942
1.418046590126529,0.8780548413966187,-0.021666961098975434,0.7853522387130144,-0.6290602055012813
1.4135292300842306,0.7148275970114994,-0.021355515494341212,0.7691929459071838,-0.6626348952817307
1.409074284197443,0.5549850848647964,-0.021072540570301675,0.7531166935852135,-0.6969146632260109
1.4046758882892343,0.3985100693230095,-0.02081694426978324,0.7371215496698872,-0.7318097212573031
1.4003284094487531,0.24538571139364507,-0.020587616115750662,0.7212056687049883,-0.7672306805465892
1.3960264496791834,0.09559555061947123,-0.02038342930872267,0.7053672910490716,-0.8030883405644458
1.3917648491350771,-0.0508765128966715,-0.020203242539908284,0.6896047424379995,-0.8392934745937501
1.387538689007825,-0.19404623641548113,-0.02004590152916024,0.673916433931594,-0.8757566106107006
1.3833432941163468,-0.3339290525159839,-0.01991024029444124,0.6583008622637038,-0.9123878063775719
1.3791742352589518,-0.47054008716870754,-0.019795082156940116,0.6427566106193615,-0.9490964175159434
1.3750273313817236,-0.6038941780198357,-0.01969924048332907,0.6272823498675829,-0.985790857242881
1.3708986516187658,-0.7340058929857349,-0.01962151916388811,0.6118768402838336,-1.022378346353725
1.3667845172602155,-0.8608895492647832,-0.019560712822303795,0.5965389338023551,-1.058764651922719
1.3626815037051405,-0.984559232882809,-0.019515606749838547,0.5812675768455211,-1.0948538130655936
1.3585864424583192,-1.1050288188990507,-0.01948497655322127,0.5660618137853223,-1.13054785196532
1.3544964232325227,-1.2223119924121235,-0.019467587501983782,0.5509207911011078,-1.165746468202508
1.3504087962213287,-1.3364222705200817,-0.019462193557007294,0.53584376230802,-1.2003467142544444
1.3463211746117854,-1.4473730254053692,-0.019467536057690315,0.5208300937423502,-1.2342426498309005
1.3422314374114925,-1.5551775087351913,-0.019482342040337476,0.5058792713035423,-1.2673249725004032
1.3381377326709798,-1.659848877590207,-0.019505322155021584,0.490990908268038,-1.2994806218282136
1.3340384811897712,-1.761400222160681,-0.019535168142203137,0.4761647543078729,-1.3305923539984763
1.3299323808033512,-1.8598445954790606,-0.019570549823702484,0.461400705867202,-1.3605382836312858
1.3258184113585774,-1.9551950454927933,-0.01961011155509481,0.4466988180730887,-1.3891913892366872
1.3216958404970918,-2.0474646498207107,-0.019652468078101334,0.43205931838325207,-1.416418978481508
1.3175642303801895,-2.1366665535823017,-0.01969619970192028,0.4174826222033416,-1.4420821091964182
1.3134234455046823,-2.222814010741345,-0.019739846731482106,0.4029693507399392,-1.4660349618425177
1.309273661777828,-2.305920429465303,-0.019781903048081997,0.38852035139298013,-1.4881241590230707
1.3051153770407693,-2.385999422069979,-0.019820808733429084,0.37413672103250895,-1.5081880276169028
1.300949423254557,-2.4630648601960488,-0.019854941611449708,0.35981983254910394,-1.5260557992988606
1.2967769805912774,-2.5371309359506427,-0.019882607562641267,0.3455713651137025,-1.541546745706495
1.2925995937057244,-2.608212229843595,-0.019902029442625674,0.3313933386286683,-1.5544692454658893
1.2884191905013362,-2.6763237864534517,-0.019911334408690827,0.31728815289378887,-1.5646197819280963
1.2842381037489143,-2.7414811988716963,-0.019908539423899415,0.30325863204190556,-1.5717818731165187
1.2800590959695475,-2.803700703090982,-0.019891534665309216,0.28930807480842685,-1.575724939516324
1.275885388056438,-2.8629992836187412,-0.019858064507161266,0.27544031117023815,-1.5762031216332486
1.2717206921872541,-2.9193947917002205,-0.019805705675543215,0.26165976579621075,-1.5729540687029042
1.2675692496741333,-2.9729060776068863,-0.019731842068463634,0.24797152855296897,-1.5656977339836136
1.2634358745200893,-3.0235531384590075,-0.019633635589099068,0.2343814319434365,-1.554135232808993
1.259326003610084,-3.0713572829594042,-0.01950799212523862,0.22089613472701428,-1.5379478500499988
1.2552457546811298,-3.116341314148997,-0.01935152148384837,0.20752320993574022,-1.5167963282418402
1.2512019935184677,-3.1585297307461175,-0.01916048958912413,0.19427123384634828,-1.490320632711279
1.247202412262825,-3.197948946637233,-0.01893076046461597,0.18114986987857326,-1.4581404846416688
1.2432556213665769,-3.234627526402683,-0.018657724261556128,0.16816993741140587,-1.4198570898150296
1.2393712587350576,-3.268596432029497,-0.01833620556243759,0.15534344951063964,-1.3750566869869167
1.2355601211487641,-3.29988927167377,-0.017960342878453273,0.1426835947205063,-1.3233168175263497
1.2318343255378232,-3.3285425347912394,-0.017523424844793904,0.13020462544585953,-1.2642166020954595
1.2282075116550235,-3.354595788282765,-0.017017659753299483,0.11792159828293783,-1.197352820953295
1.2246951041186092,-3.3780917945802074,-0.016433840593503106,0.10584989026411323,-1.122364225382012
1.2213146622015414,-3.3990764943154446,-0.015760844330952078,0.09400439292864841,-1.0389671721878952
1.218086362555377,-3.4175987744473204,-0.014984866584899054,0.08239827499394581,-0.9470060890496081
1.2150336870718614,-3.433709922799295,-0.014088233258106389,0.07104123312013147,-0.8465217464832587
1.2121844313735963,-3.44746266675007,-0.013047535296799563,0.05993728069677773,-0.737837374826558
1.2095722199455348,-3.4589097406124836,-0.011830668779976959,0.04908247037385219,-0.6216548330865833
1.2072388378457035,-3.468102086562972,-0.010392017885082722,0.03846368153554134,-0.49913740976748205
1.2052379521458316,-3.4750871754784427,-0.008664036399412206,0.028060974802294185,-0.37193244682701293
1.2036415493724257,-3.479908747387398,-0.00653979953778683,0.017858757663972585,-0.24206566804526133
1.2025534698104938,-3.482611415934848,-0.003822862956803248,0.007880942787937235,-0.11164246916439827
