x,y,v_x,v_y,omega
2.375,32.48,0.0,2.871794871794872,-5.428571428571429
2.373968054660417,31.940280587069033,-0.010862582521923118,2.8094621064257956,-5.116302856931917
2.3710105933342405,31.41218658995427,-0.020268589332567734,2.749422073729599,-4.830633045616219
2.3663867035428887,30.895295713589597,-0.028403934786927952,2.6915345195827447,-4.568592487742209
2.3603226066698477,30.38921114770895,-0.03542866387665945,2.6356714370556626,-4.327607132867232
2.3530161930623215,29.893559379168646,-0.0414809530446689,2.5817156002107025,-4.105437890851186
2.3446408624989523,29.40798826117654,-0.04668042130658681,2.529559326021958,-3.90013057790462
2.335348788468137,28.932165300200253,-0.05113088428094161,2.479103421096865,-3.709974292016015
2.3252737022061907,28.465776128655346,-0.054922655318496064,2.430256279375842,-3.533466635089778
2.3145332747052247,28.00852313721834,-0.05813447627061783,2.3829331041716095,-3.3692845280283725
2.3032311608011242,27.560124245149645,-0.06083514377254411,2.337055233393605,-3.2162596187106516
2.2914587581652004,27.120311790630076,-0.06308488397402147,2.2925495510228764,-3.0733574801346437
2.2792967249290026,26.68883152602116,-0.06493651851227265,2.2493479711762676,-2.9396599505982453
2.266816292300781,26.265441705311943,-0.06643645652164212,2.2073869836576008,-2.81435008977204
2.254080402525204,25.84991225293313,-0.06762554111600662,2.166607251908819,-2.696699321378207
2.241144697618197,25.442024004693884,-0.0685397736945959,2.1269532558727353,-2.586056410561114
2.2280583802608116,25.041568012898146,-0.06921093533051374,2.0883729735561074,-2.4818379861834083
2.21486496489119,24.648344908779972,-0.06966712119181867,2.050817596108879,-2.3835203684605744
2.2016029342587724,24.26216431630327,-0.0699332012546808,2.0142412720669336,-2.290632503059005
2.18830631439434,23.88284431213401,-0.07003121837092083,1.9786008770831336,-2.2027498359642097
2.175005179018849,23.510210927238575,-0.0699807329500381,1.9438558060267044,-2.119488990585818
2.161726092795585,23.144097686111095,-0.06979912203169104,1.9099677847888648,-2.0405031308871533
2.1484925014692853,22.78434518010249,-0.06950183929777995,1.8769006995122726,-1.965477912741672
2.135325075788214,22.430800671727376,-0.0691026415556034,1.8446204412783986,-1.8941279409652796
2.122242015134658,22.083317727173466,-0.06861378637656129,1.8130947645522524,-1.826193662140912
2.1092593159664514,21.7417558745398,-0.06804620486772066,1.7822931579073613,-1.7614386339106909
2.0963910094726845,21.40598028559301,-0.06740965296140485,1.752186725743066,-1.6996471202399295
2.0836493722508336,21.075861479060052,-0.06671284411071023,1.7227480798670258,-1.6406219695618347
2.0710451133036,20.751275043677133,-0.0659635658601668,1.6939512399531838,-1.584182738939515
2.0585875402181886,20.43210137939127,-0.06516878240732304,1.665771542003243,-1.530164032634329
2.0462847070171577,20.11822545526706,-0.06433472497194846,1.6381855540411172,-1.4784140279111628
2.034143545848916,19.809536582789192,-0.06346697153585872,1.6111709983574785,-1.4287931646766396
2.022169984409443,19.505928203373962,-0.06257051730069971,1.5847066796975529,-1.3811729787463505
2.0103690507482845,19.207297689011803,-0.06164983702728352,1.5587724188514829,-1.3354350612632244
1.9987449669056891,18.9135461550603,-0.060708940263196655,1.5333489911643559,-1.291470129116727
1.9873012326492214,18.624578284293992,-0.05975142033119935,1.5084180695336011,-1.2491771932042988
1.9760407004233467,18.340302161395236,-0.058780497835904284,1.4839621715059144,-1.2084628130844717
1.9649738871311677,18.060632019388557,-0.057712273660714325,1.4599340601433795,-1.166503728932149
1.9541095315020585,17.78548502625719,-0.05664936454043615,1.4363500780814915,-1.1263848662064349
1.9434464758649603,17.514778254648743,-0.055593326376386705,1.4131948862179617,-1.0880043074456862
1.9329832866324423,17.24843162742363,-0.054545507650119104,1.3904538214147926,-1.0512668474439755
1.9227182915684333,16.986367792803218,-0.05350707197102803,1.3681128588000917,-1.016083480610207
1.912649613003706,16.728512006441775,-0.05247901818399524,1.3461585765835387,-0.9823709327234118
1.9027751974365872,16.474792019963356,-0.051462198311993085,1.3245781231892593,-0.9500512327925578
1.8930928419072415,16.225137975540267,-0.05045733357585593,1.3033591865274554,-0.9190513211865787
1.8836002174905748,15.979482306122176,-0.049465028704846446,1.2824899652419433,-0.8893026906044834
1.8742948902145842,15.737759640954618,-0.048485784726634604,1.2619591417849734,-0.8607410568130494
1.8651743396772311,15.49990671605261,-0.04752001040339778,1.2417558571835225,-0.8333060563965451
1.8562359756050626,15.26586228931976,-0.046568032461533994,1.221869687372809,-0.8069409690441679
1.8474771525703844,15.035567060025937,-0.04563010474560593,1.202290620983236,-0.7815924621507901
1.8388951830603832,14.808963592377268,-0.0447064164122996,1.183009038476421,-0.7572103557289623
1.8304873490708378,14.585996242931227,-0.043797099267126154,1.1640156925345404,-0.7337474058282046
1.8222509123786268,14.366611091627021,-0.04290223433509402,1.145301689614992,-0.71115910483431
1.8141831236308814,14.150755876217602,-0.04202185774643494,1.1268584725894346,-0.6894034971791787
1.8062812303740665,13.9383799299043,-0.041155966009512476,1.1086778043926941,-0.6684410091327937
1.7985424841333257,13.729434121988774,-0.0403045207351281,1.0907517526128636,-0.6482342914752481
1.7909641466408917,13.523870801369423,-0.039467452869440124,1.0730726749592607,-0.6287480739599253
1.7835434953020761,13.321643742721065,-0.03864466648651313,1.0556332055497644,-0.6099490305804849
1.776277827978185,13.122708095207305,-0.03783604218602332,1.0384262419634993,-0.5918056547455224
1.7691644671575193,12.927020333584927,-0.037041440136773573,1.0214449330088948,-0.574288143546778
1.7622007635783028,12.7345382115688,-0.03626070280234725,1.0046826671608637,-0.5573682903805921
1.7553840993608483,12.545220717334214,-0.03549365738138711,0.9881330616242563,-0.541019385248809
1.7487182629982083,12.359237456034425,-0.03467304117271569,0.9695854783735427,-0.5691170401042205
1.7422039858944887,12.17676786736476,-0.03389829676117774,0.9511470339387141,-0.5987155739163484
1.7358326762727283,11.99779148518607,-0.03316812030998121,0.9328148837316981,-0.6297044331294552
1.7295959931015266,11.82228837300341,-0.03248117622898556,0.9145862971384239,-0.661975145148413
1.7234858517266933,11.650239102647927,-0.03183610140083952,0.8964586539719389,-0.6954210746728511
1.717494428739788,11.481624733594817,-0.031231508987637466,0.8784294413239484,-0.7299371836290031
1.7116141661606399,11.316426792842158,-0.030665991845499833,0.8604962508093024,-0.7654197936672491
1.7058377750060203,11.154627255276196,-0.030138125571546902,0.8426567762008397,-0.801766350187351
1.7001582383122567,10.996208524448893,-0.029646471204911398,0.8249088114549934,-0.8388751868393622
1.6945688136757238,10.841153413693156,-0.029189577600699516,0.8072502491316957,-0.8766452894258516
1.6890630353718092,10.689445127500179,-0.028765983493137585,0.7896790792154458,-0.9149760581000143
1.683634716110118,10.541067243081656,-0.028374219261507783,0.7721933883479624,-0.9537670667139914
1.6782779484813384,10.396003692037365,-0.028012808409855646,0.7547913594866922,-0.9929178181216869
1.6729871061493644,10.254238742045402,-0.027680268768817646,0.7374712720076448,-1.0323274941799137
1.6677568448409288,10.115756978488488,-0.027375113425241293,0.7202315022756453,-1.071894699120053
1.6625821031841912,9.980543285924831,-0.027095851382522837,0.703070524710213,-1.111517194878733
1.6574581034474365,9.848582829306167,-0.02684098795173709,0.6859869133809838,-1.1510916268793885
1.6523803522293101,9.71986103483854,-0.026609024870645398,0.6689793441729862,-1.1905132386459811
1.647344641152871,9.594363570373023,-0.026398460144503755,0.6520465975692932,-1.229675573504563
1.642347047617218,9.472076325203801,-0.026207787599211736,0.6351875621067137,-1.2684701614867542
1.6373839356625914,9.352985389139565,-0.026035496133698884,0.6184012385694378,-1.306786189390533
1.6324519570077138,9.237077030700842,-0.025880068654486835,0.6016867449960618,-1.344510151777183
1.6275480523217891,9.124337674280412,-0.025739980671036066,0.5850433225874088,-1.3815254804881725
1.6226694527980972,9.014753876086065,-0.025613698525721165,0.568470342616245,-1.4177121500520236
1.617813682101588,8.908312298664239,-0.025499677227005278,0.5519673144556176,-1.4529462561193902
1.6129785587694134,8.804999683779219,-0.025396357848519898,0.5355338948604009,-1.4870995638162774
1.6081621991510344,8.704802823395063,-0.025302164450205243,0.5191698986570146,-1.520039022643841
1.6033630209835845,8.607708528475793,-0.025215500470318727,0.5028753110195079,-1.5516262442842175
1.598579747708664,8.513703595282962,-0.025134744528845246,0.4866503015365946,-1.5817169394045234
1.5938114136489423,8.422774768808097,-0.025058245573488853,0.47049524030408246,-1.6101603092998102
1.5890573701770245,8.334908702929692,-0.024984317288804667,0.4544107163107146,-1.6367983880019465
1.5843172930252813,8.250091916830005,-0.02491123167691095,0.43839755842284467,-1.6614653303371865
1.5795911909040654,8.168310747144957,-0.024837211704310615,0.42245685931450916,-1.6839866413877003
1.5748794156172958,8.08955129525036,-0.024760422893264335,0.4065900027338746,-1.7041783429702038
1.570182673889285,8.013799369008996,-0.024678963717376098,0.39079869454363914,-1.7218460731875305
1.565502041145443,7.941040418215476,-0.024590854638856324,0.3750849980197244,-1.7367841159802517
1.5608389775229141,7.871259462879689,-0.024494025598288404,0.3594513739359297,-1.748774359112521
1.5561953464262395,7.804441013386132,-0.024386301735130362,0.34390072599623517,-1.757585181467851
1.5515734359891473,7.7405689814582885,-0.024265387076365153,0.32843645219160195,-1.7629702743369666
1.5469759838584638,7.679626580749343,-0.024128845878196834,0.31306250263939367,-1.7646674071719544
1.5424062057826085,7.621596215781786,-0.02397408123607165,0.2977834443875322,-1.7623971569546428
1.5378678285692904,7.566459357882838,-0.02379831048306723,0.2826045334961413,-1.7558616331769856
1.5333651280809826,7.5141964067335,-0.02359853676227529,0.26753179439164293,-1.7447432493281156
1.528902973072043,7.4647865362021335,-0.023371515963407495,0.25257210593853063,-1.7287036194300407
1.5244868758529095,7.418207523325137,-0.02311371792220536,0.23773329276668972,-1.707382698460277
1.5201230510183885,7.37443555971301,-0.022821280335910216,0.22302421893990285,-1.6803983440435484
1.5158184838367372,7.333445045429759,-0.022489953155156554,0.2084548787785164,-1.6473465615594385
1.511581010425767,7.29520836671076,-0.02211503011821371,0.19403647615832528,-1.6078028169888632
1.5074194126417886,7.259695661033319,-0.021691262344716522,0.17978147834104102,-1.5613249767148853
1.5033435318406445,7.226874576443301,-0.021212746088378493,0.16570362260654115,-1.5074586810875361
1.4993644076046666,7.1967100372339985,-0.020672772185073338,0.15181784275454016,-1.4457463026888537
1.4954944506007688,7.169164035801931,-0.020063617329640446,0.13814006705669038,-1.3757411037537468
1.4917476636483291,7.144195481605536,-0.01937624532761897,0.12468681922114612,-1.2970287973752852
1.4881399329603724,7.121760153311946,-0.018599867177189276,0.11147453123767839,-1.2092593889299694
1.4846894241578548,7.101810819246538,-0.01772127811246897,0.09851845892451785,-1.1121927482514307
1.4814171378032033,7.084297611412303,-0.016723841410177905,0.08583109722532807,-1.0057613613361438
1.478347711124795,7.069168750817163,-0.015585913099385621,0.0734200669340388,-0.8901520751011562
1.475510603348762,7.056371705475989,-0.014278379279906807,0.06128567349936972,-0.7659034070933174
1.4729418859325967,7.045854774424551,-0.012760751416571391,0.049418863884185635,-0.6340033053131137
1.4706870163644359,7.037568856431523,-0.010974717721964953,0.03780132551610073,-0.49595213590956133
1.4688053526730376,7.031468655300028,-0.00883226850327763,0.026411317973319755,-0.3537312193288163
1.4673784148463342,7.027511468710806,-0.006188129672548957,0.015243277702702037,-0.20960478647641517
1.4665299442050996,7.025647930530919,-0.002743140235182053,0.0043729136645080605,-0.06571123316682043
