x,y,v_x,v_y,omega
2.375,32.48,0.0,3.0256410256410255,-2.36734693877551
2.374396870376518,31.852240373513006,-0.005744091652209612,2.9530220837588903,-2.211605257539055
2.372679831489761,31.23941378290912,-0.010608659650239246,2.8834216362780967,-2.071223996573959
2.370020031564287,30.64090699305552,-0.01472276821141608,2.8166430289943074,-1.9442442865745722
2.3665636652654825,30.056146268593935,-0.018195006062912834,2.752506727782682,-1.829001623107068
2.362435900219864,29.484593977910055,-0.021117041990597718,2.6908484215876203,-1.7240757673469587
2.357744127571905,28.92574556813146,-0.023566507037582767,2.631517385827542,-1.628250100220562
2.352580663463819,28.379126861032063,-0.02560934161085405,2.5743750627381905,-1.5404784788103103
2.347025002505179,27.844291627943466,-0.027301715138096358,2.519293823819856,-1.4598580802857324
2.341145704144574,27.3208194083909,-0.028691602581956244,2.466155886204594,-1.38560704996198
2.335001977031275,26.808313542546152,-0.029820084211365578,2.41485235993584,-1.3170460234517778
2.3286450139631447,26.306399391994336,-0.030722421199396967,2.3652824072243153,-1.2535827879029133
2.3221191201055693,25.814722726948077,-0.03142894887275193,2.3173524979781472,-1.194699498369044
2.315462669264242,25.33294826106813,-0.03196582104465014,2.2709757484975506,-1.1399419830455004
2.308708916665992,24.860758317582277,-0.03235563227201494,2.2260713323200867,-1.0889107632933221
2.3018866916113523,24.39785161252812,-0.032617939676937685,2.1825639539099884,-1.0412534869741006
2.2950209892511046,23.943942142752512,-0.03276970184922825,2.140383377286276,-0.9966585310731615
2.2881334774052533,23.498758167839036,-0.03282564906364373,2.0994640028420473,-0.9548495752735412
2.2812429316294693,23.062041276450806,-0.032798596420010234,2.059744486569658,-0.9155809846333212
2.2743656095176688,22.633545528706332,-0.032699709406662114,2.0211673967110584,-0.8786338687906505
2.2675155734126387,22.21303666718115,-0.03253872968886476,1.983678903528746,-0.8438127086992715
2.2607049692025862,21.800291389971925,-0.03232416754973064,1.9472284984639163,-0.8109424609652924
2.2539442676488246,21.395096679992754,-0.03206346629561652,1.9117687394329308,-0.7798660653350515
2.2472424736697048,20.997249185312555,-0.031763143029335486,1.877255019426095,-0.7504422934957824
2.2406073081591713,20.606554645900598,-0.031428909451935494,1.8436453559258859,-0.7225438876629038
2.2340453662134916,20.22282736263706,-0.031065775745012108,1.8109001989649716,-0.6960559458882599
2.227562255051351,19.845889704875653,-0.030678140084901658,1.7789822559055832,-0.6708745179878768
2.221162714420079,19.47557165322457,-0.03026986592720923,1.747856331247561,-0.6469053817386792
2.2148507218675677,19.111710374546924,-0.02984434885861612,1.7174891799681204,-0.6240629737571627
2.2086295849117983,18.754149826478283,-0.02940457452966188,1.6878493730665571,-0.6022694534305391
2.2025020218467866,18.40274038902207,-0.028953168946638637,1.658907174135447,-0.5814538815682533
2.196470232675935,18.057338521017346,-0.028492442204331298,1.6306344259095664,-0.5615514981968556
2.1905359614538775,17.71780643948182,-0.028024426577166917,1.6030044458573494,-0.5425030862294319
2.184700551139654,17.384011820018955,-0.027550909748774374,1.5759919299794645,-0.5242544096797671
2.178964991912369,17.055827516644086,-0.027073463844416223,1.5495728640668942,-0.5067557167243756
2.173329963771189,16.733131299533486,-0.026593470833489105,1.5237244417483378,-0.4899612992942197
2.1677958741310137,16.415805609333766,-0.026112144787224234,1.4984249887251961,-0.47382910204476786
2.1623706235051987,16.10373789321023,-0.02555690879196633,1.4736484981656224,-0.4562446794333865
2.1570611473532884,15.796819785043589,-0.025009530750038426,1.449381103421456,-0.43949539931964976
2.1518657484128227,15.494946338760187,-0.024470459159157548,1.4256040992776102,-0.4235314638168991
2.1467826445637423,15.198016443647763,-0.02394005368922777,1.4022996636978475,-0.4083066070199172
2.141809986289129,14.905932644366516,-0.023418596545185837,1.3794508056473644,-0.3937778049706303
2.136945871895557,14.618600971533088,-0.02290630244121482,1.357041316575776,-0.37990501259751513
2.1321883607663805,14.335930782140004,-0.022403327360464156,1.3350557252631214,-0.36665092483297074
2.127535484887122,14.05783460913269,-0.021909776251523044,1.3134792557589068,-0.35398075943177326
2.1229852588524283,13.784228019520285,-0.021425709793177764,1.2922977881687785,-0.3418620592929782
2.118535688538237,13.515029480445683,-0.020951150341976466,1.2714978220655055,-0.3302645123325839
2.114184778600274,13.250160232685122,-0.020486087162434885,1.2510664423207982,-0.31915978716947746
2.1099305389403824,12.989544171088337,-0.0200304810270097,1.2309912871723874,-0.3085213830765438
2.1057709902650403,12.733107731507761,-0.019584268261960677,1.21126051835691,-0.29832449281569395
2.1017041688454383,12.480779783799147,-0.019147364305678195,1.1918627931537173,-0.28854587712283697
2.0977281305753768,12.232491530507229,-0.018719666837764545,1.1727872381978817,-0.279163749738976
2.0938409544117667,11.988176410878527,-0.018301058529951886,1.1540234249325976,-0.2701576719987996
2.0900407452724363,11.747770009869498,-0.01789140946366736,1.1355613465819687,-0.26150845609022527
2.0863256364571243,11.51120997184222,-0.017490579253589947,1.1173913965349638,-0.2531980761889468
2.082693791649761,11.278435918661827,-0.017098418911775017,1.0995043480402193,-0.24520958675253315
2.079143406553335,11.049389371930062,-0.016714772482757455,1.0818913351194508,-0.2375270473302508
2.0756727102026233,10.824013679107988,-0.016339478476402804,1.0645438346145915,-0.23013545330858154
2.072279965994782,10.602253943297956,-0.015972371122088803,1.0474536492904765,-0.22302067206931503
2.0689634724731367,10.38405695647075,-0.015613281465007418,1.030612891921003,-0.21616938408791006
2.065721563895403,10.169371135938356,-0.015262038322928868,1.014013970292272,-0.20956902854525236
2.0625526106139356,9.95814646388623,-0.014918469119619918,0.9976495730613116,-0.2032077530665987
2.0594576912254863,9.750465690107863,-0.01455695362751561,0.9802625581612465,-0.2219169164093874
2.0564358820232354,9.546424164688478,-0.014222181632017982,0.9629900648805165,-0.24250949098028746
2.0534815655453924,9.345998171969836,-0.013914165776010862,0.9458289133922814,-0.26487706892126306
2.050589132266174,9.149164651241886,-0.013632817835592542,0.928776045921509,-0.2889141534829715
2.0477530008617895,8.95590117164426,-0.013377957444261674,0.911828521674911,-0.31451792955726915
2.044967636717023,8.766185908091344,-0.013149320124944434,0.8949835121623869,-0.3415880411878864
2.042227568812577,8.579997618140474,-0.01294656467929753,0.8782382968935198,-0.3700263751927455
2.0395274051233923,8.397315619725987,-0.012769279979609126,0.8615902594349318,-0.39973685005189685
2.0368618466490314,8.218119769684584,-0.012616991204776964,0.8450368838165219,-0.43062520922982633
2.0342257001889146,8.042390442999785,-0.01248916555823991,0.8285757512768074,-0.46259881810995096
2.031613889967553,7.870108512695044,-0.012385217502347444,0.812204537339786,-0.49556646372240193
2.02902146820806,7.701255330306481,-0.012304513540444373,0.7959210092179597,-0.529438156443575
2.0264436247459487,7.535812706867059,-0.012246376574899479,0.7797230235384357,-0.5641249328372213
2.0238756957696133,7.37376289433443,-0.012210089866391879,0.7636085243913783,-0.5995386587918056
2.021313171768861,7.215088567394567,-0.01219490061696301,0.7475755417025499,-0.6355918320871418
2.0187517047684347,7.059772805572699,-0.012200023196620988,0.7316221899342934,-0.672197383494546
2.016187114919574,6.907799075581778,-0.012224642030623085,0.7157466671221033,-0.70926847547842
2.0136153965193553,6.759151213836976,-0.012267914161936226,0.6999472542569551,-0.7467182975227542
2.0110327235247722,6.613813409062175,-0.012328971500758932,0.6842223150268558,-0.7844598570528486
2.0084354546263055,6.471770184911211,-0.012406922770354089,0.6685702959347057,-0.8224057648598387
2.005820137944063,6.33300638252264,-0.01250085515576186,0.6529897268135751,-0.8604680138625411
2.003183515408492,6.197507142921893,-0.012609835659205492,0.6374792217649803,-0.8985577499567275
2.0005225268871456,6.0652578891787385,-0.01273291216313688,0.6220374805507718,-0.9365850336051454
1.9978343141191361,5.936244308221042,-0.012869114198857895,0.6066632904749166,-0.974458590711255
1.995116224519633,5.8104523321974,-0.013017453415458225,0.5913555287978803,-1.0120855511944977
1.9923658149182693,5.687868119271592,-0.013176923740387633,0.576113165733623,-1.0493711735436153
1.989580855297504,5.568478033720368,-0.013346501219281786,0.5609352680875601,-1.0862185534657371
1.986759332600023,5.4522686251928185,-0.013525143518632321,0.5458210036033756,-1.1225283145712988
1.983899454678167,5.339226606974226,-0.013711789070472996,0.5307696460975171,-1.1581982788370937
1.9809996544632629,5.229338833079346,-0.013905355833376369,0.5157805814727605,-1.1931231143708911
1.9780585944387008,5.122592273979453,-0.014104739638642137,0.5008533147166792,-1.2271939577604682
1.9750751715077688,5.018973990743419,-0.014308812084520917,0.48598747800747066,-1.2602980080277635
1.9720485223557658,4.918471107345418,-0.014516417934555345,0.47118284006871286,-1.2923180889263783
1.968978029415943,4.821070780859859,-0.014726371968517997,0.45643931693659723,-1.3231321760208625
1.9658633275605344,4.726760169227035,-0.014937455225848663,0.44175698432840926,-1.3526128846746845
1.9627043116517828,4.635526396230414,-0.015148410571785002,0.4271360918298856,-1.380626914759992
1.9595011451036832,4.547356513277318,-0.015357937505354434,0.41257707915196684,-1.4070344476013508
1.956254269623459,4.462237457518167,-0.015564686115827436,0.3980805947447101,-1.4316884904010467
1.9529644163229132,4.38015600577469,-0.015767250079847875,0.3836475170979349,-1.4544341632007742
1.949632618414164,4.301098723673434,-0.015964158574907808,0.36927897910451196,-1.4751079233666264
1.9462602257324029,4.225051909296635,-0.016153866965672434,0.35497639591261,-1.493536722719725
1.9428489213607927,4.152001530567425,-0.01633474609728266,0.3407414967465247,-1.5095370928888767
1.939400740670228,4.0819331554799305,-0.016505070003333046,0.3265763612296108,-1.5229141554032408
1.9359180931304008,4.014831874167541,-0.016663001804545465,0.31248346079315936,-1.5334605547188942
1.9324037872996993,3.950682211675808,-0.016806577535467895,0.2984657057947652,-1.540955315143774
1.92886105946172,3.889468030173699,-0.016933687588144574,0.28452649898722615,-1.5451626270169445
1.9252936064480204,3.831172419204691,-0.017042055399471286,0.2706697959557231,-1.5458305742794538
1.921705623273815,3.775777572459347,-0.01712921292629338,0.25690017304754464,-1.5426898258700645
1.9181018463209942,3.723264649462916,-0.01719247233866796,0.24322290310893818,-1.5354523288369635
1.914487602939441,3.6736136205470977,-0.017228893199932593,0.22964403894647795,-1.523810064089333
1.9108688685162156,3.626803093565446,-0.017235244164118643,0.21617050373592497,-1.5074339598543671
1.9072523323036663,3.5828101210967027,-0.017207957860162187,0.20281018644259535,-1.4859731083201568
1.9036454736359405,3.541609987483902,-0.01714307707055907,0.1895720384412366,-1.4590545051410868
1.9000566506544947,3.503175976169313,-0.0170361894194003,0.176466164554837,-1.4262836402692813
1.896495204399507,3.4674791196929604,-0.01688234634238928,0.1635038971247264,-1.3872464272389806
1.8929715822596442,3.434487937849916,-0.016675959751540556,0.15069783471378234,-1.341513187501773
1.8894974865650043,3.4041681744591514,-0.016410665911698243,0.13806181662683223,-1.2886457336712063
1.8860860569881959,3.3764825508202776,-0.016079139581713264,0.12561078945768459,-1.2282090512028068
1.8827521001054204,3.351390565274393,-0.0156728307304346,0.11336050145549788,-1.1597896860979782
1.8795123871538715,3.3288483844233063,-0.01518157833193607,0.10132693522150832,-1.0830236945292868
1.8763860536532753,3.3088088929936568,-0.01459302643564568,0.08952536410847853,-0.9976377780845804
1.8733951552832737,3.2912219943471968,-0.013891719945323722,0.07796890871493804,-0.9035076276077455
1.8705654682646211,3.276035274649306,-0.013057680232319364,0.06666651697926879,-0.8007365713839631
1.8679276778457456,3.263195140011497,-0.012064133280778766,0.05562047957129304,-0.6897533928667521
1.865519191508798,3.25264846171374,-0.01087383183300795,0.04482407564545693,-0.571417392861906
1.8633869864627253,3.2443445334244885,-0.009432882891496018,0.03426095568075085,-0.4470981277144539
1.8615923043683238,3.238236606294116,-0.00765932753137462,0.023909778894232035,-0.31866871091437865
1.8602193104532336,3.234281064839866,-0.0054168049932952905,0.013762044479564316,-0.1883311395043989
1.8593961612694367,3.232428299344086,-0.0024227110428640276,0.0038833411945338424,-0.05821329048936097
