x,y,v_x,v_y,omega
2.375,32.48,0.0,3.435897435897436,-3.7142857142857144
2.3736978734794407,31.70108911642854,-0.011322839309211035,3.337240682115208,-3.4146793135624187
2.3700317369733743,30.9442806256517,-0.020556608569627703,3.2437027159442913,-3.1516682001144702
2.364439323661547,30.20844466903352,-0.028073072402783644,3.1548708198659914,-2.9195386507811976
2.357281069551137,29.492541126090437,-0.03417261551382813,3.0703773796390466,-2.7136219108064683
2.348854809606421,28.795609975918765,-0.03909921009239652,2.9898934914189725,-2.5300784839339303
2.3394074245409193,28.11676299750051,-0.043051964390225655,2.913123712218033,-2.3657316923684237
2.329144127210074,27.455176574737166,-0.046194099356257186,2.8398017031153815,-2.217938207931177
2.3182359088216327,26.8100854222335,-0.048659973586706595,2.769686579525201,-2.0844865827156918
2.306825541071402,26.18077708529875,-0.05056061554573597,2.702559828603043,-1.9635171651354888
2.295032438116771,25.566587096035356,-0.051988105798881,2.638222686730838,-1.8534584782171537
2.282956613203252,24.966894689250335,-0.05301906736215239,2.576493894008483,-1.7529763631617779
2.27068191255378,24.381118998985748,-0.053717460024564144,2.5172077604661944,-1.6609330892406944
2.258278669394054,23.808715669941378,-0.05413682832087505,2.4602124920935236,-1.5763542948615012
2.2458058905335854,23.24917382882724,-0.054322118291899875,2.4053687349859554,-1.498402119416789
2.2333130644333394,22.702013369367982,-0.05431115214501809,2.352548303790201,-1.4263532572429283
2.220841661465597,22.16678251175186,-0.05413583018317631,2.3016330667847282,-1.3595809463322635
2.208426382850633,21.64305560312063,-0.05382311429477091,2.252513964791235,-1.2975401188122102
2.196096203599388,21.130431130496248,-0.05339583571605866,2.2050901449859683,-1.2397551046212893
2.1838752459964383,20.628529921536497,-0.052873360831328854,2.1592681937945066,-1.1858094066891265
2.1717835131906593,20.13699351185857,-0.052272141827619675,2.1149614555787664,-1.1353371644052437
2.1598375069168756,19.65548266048996,-0.05160617359658462,2.072089425887393,-1.0880159990190938
2.1480507489408174,19.1836759973932,-0.05088737402131273,2.0305772097366246,-1.04356099491359
2.136434222263577,18.721268789042405,-0.050125901432954666,1.9903550367919907,-1.0017196182412809
2.1249967452564578,18.26797180976509,-0.049330420368079386,1.9513578264890319,-0.9622674120837209
2.1137452895795894,17.823510308051407,-0.048508324648169454,1.9135247971082092,-0.9250043372791228
2.1026852508563554,17.387623058315302,-0.04766592511908217,1.876799113640521,-0.8897516520351332
2.091820679543127,16.960061489699633,-0.046808608039427206,1.8411275699739735,-0.856349242689701
2.0811544781810563,16.540588884477913,-0.045940969022054426,1.8064603015192775,-0.8246533334983055
2.0706885701894246,16.128979639440388,-0.04506692655735071,1.7727505248939543,-0.7945345158827736
2.0604240445149604,15.725018584380706,-0.044189818437990976,1.7399543017119703,-0.765876047778239
2.0503612797543007,15.32850035243614,-0.043312483828614655,1.7080303238929488,-0.7385723820327935
2.0405000507897784,14.939228797593078,-0.042437333254191016,1.676939718220649,-0.7125278896207924
2.0308396204999224,14.557016455160138,-0.04156640839673011,1.6466458681527372,-0.6876557490193939
2.0213788187076798,14.181684041443827,-0.04070143327494492,1.617114251119542,-0.6638769777018403
2.0121161101969953,13.813059989243374,-0.039843858122308305,1.5883122897539594,-0.6411195855059263
2.0030496533504367,13.450980016119324,-0.03899489706516172,1.5602092156725582,-0.6193178327904953
1.9941773507274878,13.095286722689927,-0.03815556052569663,1.5327759445830649,-0.5984115789157923
1.9854968927073158,12.745829218475539,-0.03732668312797285,1.5059849616290077,-0.5783457087709905
1.977005795154831,12.402462773048075,-0.03650894776319978,1.4798102160011022,-0.5590696269017122
1.968715550216864,12.065049573702101,-0.03558013865390323,1.454217604398687,-0.5370002755038502
1.9606362889423221,11.733457258242776,-0.034674307211678225,1.4291938343780448,-0.5160499580348274
1.9527627466663726,11.40755755409904,-0.0337912777965787,1.4047166364370618,-0.49614757073515126
1.9450897073870808,11.087227181322515,-0.032930802892916666,1.3807648659675038,-0.4772273837227556
1.9376120188277772,10.772347602024329,-0.032092575883636495,1.3573184322775897,-0.4592285710425971
1.9303246047715972,10.462804785524966,-0.03127624199618838,1.3343582329342534,-0.4420947872397126
1.9232224750592781,10.158488988046727,-0.03048140767615074,1.311866092963489,-0.42577378532567556
1.9163007335866062,9.859294545879276,-0.029707648607954263,1.2898247084925987,-0.4102170716305084
1.90955458459106,9.565119681039889,-0.028954516570708425,1.268217594458582,-0.3953795935721009
1.9029793374770265,9.275866318532213,-0.02822154529045097,1.2470290360429617,-0.3812194568447507
1.8965704103944736,8.99143991438184,-0.027508255427401165,1.2262440435255033,-0.3676976689375023
1.8903233327563227,8.711749293694428,-0.02681415881738991,1.2058483102780762,-0.3547779062499312
1.884233746854267,8.436706498043197,-0.02613876207005216,1.1858281736456577,-0.34242630238506766
1.878297408710811,8.166226641548217,-0.025481569612171403,1.166170578484601,-0.3306112554723785
1.8725101882863853,7.900227775060351,-0.02484208625240144,1.146863043149029,-0.3193032526133535
1.8668680691440462,7.6386307579087,-0.024219819333154046,1.1278936277348788,-0.30847470975272656
1.861367147660189,7.381359136712277,-0.023614280526476253,1.109250904407922,-0.2980998254635417
1.8560036318574955,7.128339030794784,-0.023024987323031654,1.0909239296572262,-0.28815444729742673
1.8507738399258304,6.879499023776344,-0.022451464256663257,1.0729022183291983,-0.2786159494954047
1.8456741984876652,6.634770060947872,-0.021893243901295885,1.0551757193096982,-0.26946312098178393
1.8407012406567358,6.394085352062973,-0.021349867672002178,1.0377347927328942,-0.2606760626762379
1.835851603931809,6.15738027920904,-0.02082088645779617,1.02057018860565,-0.25223609325893037
1.8311220279615084,5.924592309443668,-0.020305861110036516,1.0036730267454173,-0.2441256626120471
1.8265093522110334,5.695660911905083,-0.01980436280713691,0.9870347779379398,-0.23632827223972344
1.8220146507173707,5.47063035508652,-0.019279998007320578,0.9697526726582698,-0.24676076134625322
1.8176373134461055,5.249560189806182,-0.018783804351505937,0.9525965906490236,-0.25947047931494893
1.8133708261598662,5.032421861420762,-0.018316085094053965,0.9355627866154883,-0.27433202236408866
1.809208620751526,4.819187659181029,-0.01787700541325109,0.9186476676430523,-0.2912239871564787
1.8051441056036412,4.609830682009264,-0.017466604568355075,0.9018477860244752,-0.31002867994359207
1.8011706932647014,4.404324805865002,-0.017084807074601423,0.88515983262129,-0.33063183726327366
1.7972818256595104,4.202644652579533,-0.016731432970536118,0.8685806307306223,-0.3529223570097656
1.7934709970346252,4.00476556004584,-0.016406207245858614,0.8521071304319178,-0.3767920387441352
1.7897317748247437,3.810663553656191,-0.016108768492241164,0.8357364033911213,-0.4021353321544877
1.786057818612193,3.6203153188843906,-0.015838676834288246,0.8194656381027914,-0.4288490926088782
1.7824428973390698,3.4336981749139177,-0.015595421192868518,0.8032921355534904,-0.4568323427697682
1.7788809049201184,3.2507900492166186,-0.015378425928450064,0.7872133052925937,-0.4859860392572954
1.7753658743939542,3.071569452989536,-0.015187056907759398,0.7712266618994374,-0.5162128433595395
1.7718919907407635,2.8960154573596704,-0.015020627033029454,0.7553298218385175,-0.547416894791302
1.7684536024859994,2.7241076702680544,-0.014878401269267354,0.7395205006972824,-0.5795035874985002
1.765045232201881,2.5558262139454087,-0.014759601201325915,0.7237965108039751,-0.61237934649287
1.7616615860115854,2.3911517028919604,-0.014663409149071627,0.7081557592260111,-0.6459514046809048
1.758297562194901,2.2300652222734243,-0.01458897186557444,0.6925962461525724,-0.6801275786214243
1.7549482589887635,2.072548306644002,-0.014535403839969624,0.677116063668499,-0.7148160421072818
1.7516089816714728,1.9185829189051482,-0.014501790223427216,0.6617133949302294,-0.7499250964178614
1.7482752490155287,1.7681514294059397,-0.014487189393477429,0.6463865137585275,-0.785362936029388
1.744942799190873,1.621236595086991,-0.014490635168746846,0.6311337846671211,-0.8210374084988045
1.7416075951979308,1.477821538564882,-0.014511138682924508,0.6159536633512313,-0.8568557671530262
1.7382658299081966,1.337889727047969,-0.014547689923460916,0.6008446976653911,-0.8927244151176266
1.734913930789236,1.2014249509669561,-0.014599258937065762,0.5858055291260407,-0.928548639106154
1.7315485643909196,1.0684113021946153,-0.014664796700467076,0.5708348949812605,-0.9642323312619504
1.728166640670492,0.9388331517185229,-0.01474323565107672,0.5559316308978117,-0.9996776971970084
1.7247653172357844,0.8126751266179504,-0.014833489868120824,0.5410946743245495,-1.034784948205532
1.721342003588557,0.6899220861814612,-0.014934454890378694,0.526323068601455,-1.069451975441831
1.7178943654536991,0.5705590969843435,-0.0150450071518629,0.5116159678952065,-1.1035740036414843
1.7144203292849134,0.45457140672499463,-0.015164003011490804,0.4969726430556352,-1.137043221730017
1.7109180870436917,0.3419444165957657,-0.015290277346958543,0.48239248850287075,-1.1697483874037256
1.70738610135599,0.23266365193656213,-0.015422641676534834,0.4678750302728016,-1.2015744024825268
1.7038231111601867,0.12671473088774832,-0.015559881765233072,0.4534199353690282,-1.2324018555257084
1.700228137970863,0.024083330722092455,-0.015700754663668125,0.4390270225931735,-1.2621065278708894
1.6966004928958895,-0.07524484850718238,-0.01584398511871075,0.4246962750526845,-1.2905588589097754
1.6929397845595036,-0.17128412341454435,-0.015988261284644433,0.4104278545765718,-1.317623366060861
1.689245928101824,-0.2640488702959658,-0.01613222965170096,0.3962221183053541,-1.3431580145546462
1.6855191554459124,-0.35355357224373307,-0.01627448909535473,0.38207963776220755,-1.3670135318356398
1.6817600270475037,-0.43981287097359,-0.016413583934286848,0.36800122075826536,-1.3890326611449928
1.6779694453703438,-0.5228416240624512,-0.0165479958671045,0.35398793653619115,-1.4090493487348268
1.6741486703623465,-0.6026549683945106,-0.01667613463721944,0.3400411446121627,-1.4268878592650134
1.670299337245192,-0.6792683907260582,-0.016796327251080805,0.32616252783605704,-1.4423618143712484
1.6664234769734945,-0.7526978064060117,-0.016906805546289247,0.3123541302504728,-1.4552731503557335
1.6625235397704317,-0.8229596474292933,-0.017005691871648815,0.29861840038675397,-1.465410992712749
1.6586024222063132,-0.8900709611522686,-0.017090982598946237,0.284958240682604,-1.472550448164448
1.6546634983571233,-0.9540495211595186,-0.01716052913313812,0.27137706372825793,-1.4764513196414588
1.6507106556646378,-1.0149139519311987,-0.01721201601891105,0.25787885602547483,-1.4768567570737512
1.6467483362227522,-1.0726838691059797,-0.017242935649659914,0.2444682498421981,-1.4734918682508003
1.6427815843429292,-1.127380037241764,-0.017250558957496644,0.23115060351246985,-1.4660623312727026
1.638816101415645,-1.179024547005234,-0.01723190127975767,0.21793209008289294,-1.4542530760620844
1.6348583093010818,-1.2276410136074318,-0.0171836823251395,0.20481979341445164,-1.4377271412001036
1.630915423778006,-1.273254797944098,-0.01710227874508404,0.1918218095130652,-1.4161248701185607
1.6269955399990175,-1.3158932511364512,-0.016983667159163076,0.1789473486813093,-1.3890636964097272
1.6231077325165326,-1.3555859817542526,-0.016823354427662546,0.1662068306039306,-1.3561388947405253
1.6192621733797488,-1.3923651425630652,-0.016616290240024263,0.1536119590379057,-1.3169258601258123
1.6154702732651036,-1.4262657296132488,-0.016356754235151226,0.1411757544419524,-1.2709847496072717
1.611744852940338,-1.4573258800739524,-0.01603820511063601,0.12891251043372384,-1.2178687094230318
1.6081003561644018,-1.485587145309431,-0.015653071201851422,0.1168376220487007,-1.1571374537796013
1.6045531213830326,-1.5110947009373845,-0.015192448636143462,0.10496720949872336,-1.0883786831233337
1.601121739944929,-1.5338974346862884,-0.014645650825628154,0.0933174317960782,-1.0112407009059905
1.59782754575247,-1.5540478255156458,-0.013999516065317349,0.08190335802442593,-0.9254804197557304
1.5946953096702958,-1.5716014970444405,-0.013237319431851075,0.07073726396506919,-0.8310311653202671
1.5917542587426006,-1.586616307608665,-0.012337036461150211,0.059826306158651574,-0.7280929040339419
1.58903961748777,-1.599150861485107,-0.01126853966781155,0.04916981450604838,-0.6172409821330735
1.586595002051239,-1.60926246211136,-0.009988985867241012,0.03875714746134992,-0.4995339987031169
1.5844762651853301,-1.6170049089713388,-0.008434812966747744,0.028568477408009843,-0.3765741452119836
1.5827581010054548,-1.6224274033571433,-0.006505745119125674,0.018583647685932788,-0.2504410362774484
1.5815474521843131,-1.6255779687641336,-0.004021635934278418,0.008812573244399656,-0.12340846844773776
