x,y,v_x,v_y,omega
2.375,32.48,0.0,2.6153846153846154,-8.0
2.37350476943207,31.962526779192558,-0.014952305679297076,2.5593475926897877,-7.554854561108793
2.369212636197329,31.456052794180557,-0.027969026668115786,2.505392257430196,-7.146379013703144
2.362486708624685,30.96017541963505,-0.03929024905832658,2.453381488024879,-6.770567579909194
2.3536453865621985,30.47451808856983,-0.04912297156653487,2.4031918226273254,-6.423944411424929
2.3429684579144445,29.99872775009888,-0.057646314911007204,2.3547115620821972,-6.103481517712323
2.330702247699199,29.532472673277685,-0.06501578724144831,2.307839206129747,-5.806531342020857
2.3170639887674658,29.075440537245786,-0.07136680207588343,2.2624821541892275,-5.530771007225713
2.3022455486844717,28.627336760036243,-0.07681759875405723,2.2185556179061985,-5.274155934901116
2.2864166206859085,28.187883027795372,-0.08147168123157658,2.175981704502495,-5.034881049339269
2.2697274660060014,27.756815993454165,-0.08541986556749157,2.1346886389095885,-4.811348161547274
2.252311278723288,27.33388611961644,-0.08874200725964215,2.094610099467661,-4.602138420294193
2.2342862315018115,26.918856644950996,-0.0915084649551249,2.0556846471867716,-4.405988941892941
2.2157572504256855,26.511502656973,-0.09378134580613191,2.017855232593181,-4.221772904683242
2.1968175589454986,26.111610256982125,-0.09561556899573813,1.9810687673155831,-4.048482530523448
2.1775500243355594,25.718975805248775,-0.09705977710365407,1.9452757500179039,-3.8852144830768904
2.1580283346686517,25.333405236425236,-0.098157119565423,1.910429938217482,-3.731157298007572
2.1383180298955473,24.954713436697553,-0.09894592816562331,1.8764880590593858,-3.585580528395342
2.1184774069742742,24.582723675457657,-0.09946030104710703,1.8434095533395447,-3.447825343520714
2.0985583159768986,24.21726708531874,-0.09973060892664569,1.8111563480496384,-3.3172963635253745
2.0786068615902122,23.858182185163027,-0.09978393494022084,1.7796926535074697,-3.1934545485248167
2.0586640223272292,23.505314441634482,-0.09964445768960618,1.7489847817779616,-3.0758109902310453
2.0387661980040956,23.158515865095396,-0.09933378554173118,1.7190009836128979,-2.963921478354064
2.018945694552105,22.817644636577494,-0.09887124897817587,1.68971130156614,-2.8573817340221055
1.9992311539790093,22.482564762691474,-0.09827415675278134,1.661087437294064,-2.755823219003858
1.9796479362286958,22.153145755827754,-0.09755802075035365,1.633102631343132,-2.658909443273964
1.9602184587819895,21.8292623372965,-0.09673675371670887,1.6057315539694508,-2.5663327049475404
1.9409624990678953,21.51079416132574,-0.09582284342423385,1.5789502057381122,-2.477811206229954
1.9218974640927575,21.19762555806989,-0.09482750632714367,1.5527358268203881,-2.393086497114171
1.9030386311270342,20.889645293982817,-0.09376082333008826,1.5270668140503474,-2.3119212053759255
1.884399362801104,20.586746348085395,-0.09263185992921437,1.5019226449238927,-2.2340970171830805
1.8659912995406593,20.288825702810364,-0.09144877267523172,1.4772838078263926,-2.159412877526088
1.8478433455472247,19.995792748602554,-0.09003076725911455,1.4530457342517469,-2.082056330294082
1.8299805074919187,19.707560010002886,-0.08859761329394521,1.4292816517449147,-2.008227096354282
1.812405368749833,19.42403440439486,-0.08715377412691355,1.4059744043353393,-1.9377223796307794
1.7951196707990587,19.145126199747537,-0.08570320538082786,1.3831076421379083,-1.8703532682614985
1.778124409461332,18.870748858245655,-0.08424940799643964,1.360665772880892,-1.805943631277304
1.7614199211023194,18.60081888925955,-0.08279547559368804,1.338633916980196,-1.7443291148766111
1.7450059598635446,18.335255710976448,-0.08134413679405995,1.3169978658507835,-1.6853562282343402
1.7288817668772527,18.073981520073612,-0.07989779306885611,1.29574404317759,-1.6288815099086982
1.7130461323092934,17.816921168866248,-0.07845855261073816,1.2748594688960475,-1.5747707668959898
1.6974974509815073,17.564002049410952,-0.0770282606671222,1.2543317256569357,-1.5228983792508899
1.6822337722425347,17.31515398408805,-0.07560852672260347,1.2341489275720967,-1.4731466639531217
1.6672528446830104,17.07030912222514,-0.07420074887263943,1.2142996910569521,-1.4254052923747835
1.6525521562266139,16.829401842359143,-0.07280613569132657,1.1947731076030335,-1.3795707562972492
1.6381289700713269,16.592368659765924,-0.0714257258615427,1.175558718329159,-1.335545877952639
1.6239803569046365,16.35914813891564,-0.07006040580536022,1.1566464901736755,-1.2932393600309164
1.610103223771508,16.12968081053802,-0.06871092552592388,1.1380267936025312,-1.2525653720071608
1.5964943399340699,15.903909093005865,-0.0673779128484591,1.1196903817190271,-1.2134431695109478
1.5831503600264907,15.681777217766857,-0.06606188622733139,1.1016283706710521,-1.1757967437866237
1.5700678447769814,15.463231158573695,-0.06476326626776287,1.0838322212605744,-1.1395544985844415
1.5572432795407425,15.248218564280812,-0.06348238609462631,1.0662937216682462,-1.1046489520822793
1.5446730908626383,15.036688694992659,-0.062219500686417316,1.0490049712132752,-1.0710164616696538
1.532353661266014,14.8285923613638,-0.06097479527982321,1.0319583650753263,-1.0385969696332045
1.5202813424441253,14.623881866865148,-0.05974839293906432,1.0151465799111896,-1.0073337679685814
1.5084524670127983,14.422510952843592,-0.05854036137420645,0.9985625603043778,-0.977173280710166
1.4968633589669995,14.22443474621408,-0.057350719083781684,0.9821995059907411,-0.9480648623194832
1.4855211763746627,14.029806800646242,-0.05607110683958646,0.9640799496876323,-0.9591285604766494
1.474429998687083,13.83879092997499,-0.054840670036212,0.9460787570248916,-0.972198821463935
1.463580102100967,13.651363789552072,-0.053658295824948146,0.9281926472042925,-0.9871486148153245
1.4529619910333857,13.467502677031138,-0.05252281485086228,0.910418478005049,-1.003854119583717
1.442566408796739,13.28718550518462,-0.05143300751560644,0.8927532404601277,-1.022194435816265
1.4323843470769937,13.110390775736064,-0.05038760968184701,0.8751940540254151,-1.042051304412912
1.422407054322899,12.937097554111016,-0.04938531785909963,0.8577381622250612,-1.0633088341632642
1.4126260431462687,12.767285445012554,-0.04842479390720311,0.8403829287595543,-1.0858532347863483
1.4030330968265163,12.600934568729969,-0.04750466929032066,0.8231258340663051,-1.109572554818707
1.3936202750063653,12.438025538090763,-0.04662354891118907,0.8059644723257493,-1.1343564232087335
1.3843799186600143,12.27853943596726,-0.04578001455232187,0.7888965489092714,-1.160095793479226
1.3753046544099834,12.12245779324947,-0.044972627947986336,0.7719198782686295,-1.1866826893157623
1.3663873982643855,11.969762567195598,-0.044199933507993325,0.7550323822700856,-1.2140099504255644
1.3576213588424222,11.820436120070575,-0.043460460711639726,0.7382320889801448,-1.2419709774898264
1.349000040152508,11.674461197981184,-0.042752726187502144,0.7215171319137442,-1.2704594750017821
1.3405172439845403,11.531820909813813,-0.04207523549217357,0.7048857497599578,-1.2993691907427625
1.3321670719754792,11.392498706177332,-0.04142648459843805,0.6883362866048561,-1.3285936505987823
1.3239439274055589,11.256478358249229,-0.04080496110076578,0.6718671926761581,-1.358025887360402
1.3158425167811467,11.123743936417632,-0.040209145143356585,0.6554770256397973,-1.3875581620783288
1.3078578512594876,10.994279788605194,-0.039637510073235134,0.6391644524846017,-1.4170816764660579
1.2999852479703564,10.86807051815293,-0.03908852281807578,0.6229282520380321,-1.4464862747484801
1.2922203312900011,10.745100961132781,-0.038560643985476865,0.6067673181634565,-1.4756601332515829
1.2845590341237256,10.625356162946648,-0.03805232767727717,0.5906806636978787,-1.5044894359131462
1.2769975992550806,10.508821354057009,-0.03756202100917242,0.5746674251985109,-1.5328580337679962
1.269532580821933,10.395481924679434,-0.03708816332230305,0.5587268685772308,-1.5606470863247441
1.2621608459827431,10.285323398250316,-0.036629185069597316,0.5428583957139591,-1.587734682605539
1.2548795768402423,10.178331403463574,-0.03618350635540983,0.527061552153477,-1.6139954394687788
1.2476862726944682,10.07449164464769,-0.035749535102330914,0.5113360360053674,-1.6393000746810598
1.2405787527028471,9.973789870228778,-0.03532566481388083,0.49568170818375445,-1.6635149520550696
1.2335551590318534,9.876211838996152,-0.034910271896056166,0.48009860414248984,-1.686501595833901
1.2266139605928223,9.781743283853654,-0.034501712494253566,0.46458694728248223,-1.708116171392737
1.2197539574639145,9.690369872702302,-0.034098318794824556,0.4491471642310334,-1.728208929265395
1.2129742861112078,9.602077166057377,-0.03369839473224172,0.4337799022182104,-1.7466236095133105
1.206274425534648,9.516850570955341,-0.03330021103335708,0.4184860488021522,-1.7631968035773415
1.1996542044793914,9.434675290652812,-0.03290199951920817,0.40326675422313935,-1.77775727104345
1.1931138098702843,9.355536269561089,-0.0325019465718636,0.38812345669410786,-1.7901252092897677
1.186653796647266,9.279418132795563,-0.032098185658319914,0.3730579109611634,-1.8001114748742943
1.1802750992029705,9.206305119650597,-0.03168878878463525,0.35807222048850057,-1.807516756923621
1.1739790446514968,9.136181010238428,-0.031271756730102074,0.34316887363318843,-1.8121307049103694
1.1677673681903342,9.069029044458183,-0.03084500788152454,0.32835078416925273,-1.8137310163654967
1.161642230857294,9.004831832392629,-0.030406365448878425,0.3136213364863008,-1.8120824946907852
1.1556062400332368,8.943571255173097,-0.02995354279169437,0.298984435709022,-1.8069360939219976
1.1496624731026537,8.885228355318638,-0.02948412651413701,0.284444562835573,-1.7980279768976886
1.143814504762615,8.829783215561214,-0.02899555688625009,0.270006834738653,-1.7850786270153738
1.1380664385735781,8.777214825241405,-0.028485105004116835,0.2556770684594297,-1.7677920732992634
1.1324229434842492,8.727500933538128,-0.027949845889172275,0.2414618485733573,-1.7458553162398878
1.1268892962543717,8.680617889140226,-0.027386626409603376,0.22736859540566437,-1.7189380811163912
1.1214714309707665,8.636540466563421,-0.0267920264264482,0.21340563036237373,-1.686693080871319
1.1161759972449383,8.595241680287607,-0.026162310831833287,0.199582232395775,-1.6487570483321972
1.1110104292605543,8.556692589414336,-0.02549336901200635,0.1859086763369387,-1.6047529059611756
1.105983028708778,8.520862097869717,-0.024780636505756008,0.17239623910926086,-1.5542935908658106
1.1011030659698635,8.48771675863642,-0.024018990883387856,0.1590571532237205,-1.4969882556855458
1.096380905922404,8.457220595513256,-0.023202609591207495,0.14590447800791245,-1.4324518336420895
1.0918281678782238,8.429334962954663,-0.02232477085059453,0.13295184757802134,-1.3603192927237417
1.0874579339516044,8.404018474059988,-0.021377568415598736,0.12021304136871268,-1.2802662912214908
1.0832850275837382,8.38122703881595,-0.020351495263063075,0.10770131107168297,-1.1920383106851817
1.079326395301854,8.360914068213528,-0.019234827555779332,0.09542839495252872,-1.0954904894152995
1.0756016420632943,8.343030911307476,-0.018012704829817594,0.08340317410800142,-0.990639887064529
1.072133796657021,8.327527592975969,-0.016665749232916027,0.07163000920706387,-0.8777299765081665
1.0689504235992882,8.31435389220784,-0.01516798134441249,0.06010699847421701,-0.7573025093276171
1.0660852629353712,8.303460712208171,-0.013483625294757686,0.04882480152249505,-0.630263102946278
1.0635807028157873,8.294801493655182,-0.01156197590108213,0.03776738400740201,-0.4979137810622542
1.061491691132648,8.288333027939682,-0.009328140930312031,0.026917273147578864,-0.3619123260164204
1.059892662513492,8.284014203522812,-0.00666214526124926,0.016270971021124535,-0.22411499420635053
1.0588933777002023,8.28179853170505,-0.003330702871645906,0.005885747156495598,-0.08627996509090069
