x,y,v_x,v_y,omega
2.375,32.48,0.0,3.0256410256410255,-3.3469387755102042
2.373977922797191,31.793134327066305,-0.008887627850510315,2.9471039563910693,-3.1069517153294894
2.3710807078261125,31.123918784466266,-0.016305545811043973,2.8721616314353775,-2.8928475239834017
2.3666195410210134,30.471556338455795,-0.02248720901590389,2.8005552903948057,-2.701030983774367
2.360856523431477,29.835306559276876,-0.027625987414848414,2.7320514850740447,-2.528494464599845
2.3540130240283044,29.214480170224107,-0.03188270304752282,2.666438854515251,-2.372709154370217
2.3462764770074824,28.60843427856615,-0.035391618872669145,2.603525420771309,-2.231538639816348
2.3378059399335114,28.01656818045261,-0.038265225248817814,2.543136301955143,-2.1031698024946803
2.32873665910554,27.43831965292811,-0.04059808629875776,2.485111763475291,-1.9860572281442206
2.319183835333718,26.87316166231735,-0.04246994649969424,2.4293055461834903,-1.8788782343955803
2.3092457425393826,26.320599430818053,-0.043948251711917824,2.3755834233756126,-1.7804962951496286
2.299006320113042,25.7801678130499,-0.045090204169305925,2.3238219485213807,-1.6899311443469722
2.288537335498056,25.25142894220655,-0.0459444446566604,2.2739073631598905,-1.6063342228229045
2.2779001943358645,24.73397011181762,-0.04655243501456919,2.2257346402221305,-1.52896842187611
2.267147460462171,24.227401864295636,-0.046949598669722356,2.17920664257774,-1.4571912993853628
2.2563241361470276,23.7313562616793,-0.04716626494022015,2.1342333801730207,-1.3904411157284904
2.2454687435187264,23.24548531748355,-0.04722845356674608,2.0907313519639326,-1.3282251698147236
2.2346142405644374,22.76945957147861,-0.047158528644464175,2.048622961122494,-1.270110019419825
2.2237887990484024,22.302966791658577,-0.046975745408011776,2.0078359938343264,-1.2157132515558193
2.2130164668145316,21.845710789714662,-0.046696708799561296,1.9683031535040458,-1.164696532948329
2.202317732999228,21.39741033806891,-0.046335759159600594,1.9299616434155584,-1.1167597217130643
2.191710011481378,20.957798178006357,-0.045905297517353755,1.8927527919109846,-1.0716358619673008
2.1812080552903224,20.526620109711914,-0.04541606066574235,1.8566217149972095,-1.0290869156366635
2.170824312561965,20.10363415610771,-0.04487735436345254,1.8215170119958621,-0.9889001118558343
2.1605692328853445,19.68860979332682,-0.044297251520202925,1.7873904904466689,-0.9508848154540177
2.150451531443495,19.281327241473207,-0.0436827610176205,1.754196916976029,-0.9148698331033335
2.140478417164864,18.88157681002508,-0.04303997184004023,1.721893791268574,-0.8807010896035907
2.1306557901181664,18.489158292855315,-0.04237417639210853,1.6904411406424362,-0.8482396181176329
2.1209884125668736,18.10388040838189,-0.041689976227829904,1.659801333039498,-0.8173598174597672
2.1114800574194095,17.72556028083386,-0.0409913728805555,1.6299389065085685,-0.7879479371729434
2.1021336372431967,17.354022959034115,-0.04028184604303377,1.6008204134892372,-0.7599007574238261
2.09295131653518,16.989100969466527,-0.03956442098319582,1.572414278402818,-0.7331244359502499
2.0839346095423488,16.630633900718863,-0.038841726780553976,1.5446906672290683,-0.7075334986141144
2.0750844655899603,16.278468016679344,-0.038116046718475606,1.5176213678971855,-0.6830499537062498
2.066401343591947,15.932455896119393,-0.037389361959905824,1.4911796804502295,-0.6596025131485291
2.0579005302787943,15.592457398589556,-0.036530753806635376,1.4653289937222733,-0.6334021163074419
2.0495955566741246,15.258337954098906,-0.03568640797310305,1.4400574801094779,-0.6085404778758887
2.0414830660864514,14.929966975563211,-0.03485698844144703,1.4153423332443922,-0.5849319123820664
2.0335595669201436,14.607218987972612,-0.034043004309053056,1.3911619066738565,-0.5624972565802845
2.025821465818556,14.289973370088063,-0.033244831356930286,1.3674956401483143,-0.5411632951131047
2.018265096172548,13.978114112450804,-0.03246273078226532,1.3443239914800151,-0.5208622434176864
2.0108867426028447,13.67152959048012,-0.03169686547602678,1.321628373482457,-0.5015312815217706
2.0036826619432055,13.370112351541167,-0.03094731417300872,1.2993910955519137,-0.4831121331505002
1.996649101181355,13.073758914960774,-0.030214083756126532,1.277595309494995,-0.4655506852379351
1.989782312754244,12.782369584055726,-0.029497119957880773,1.2562249592445554,-0.4487966435214774
1.983078567542193,12.495848269316447,-0.02879631666865061,1.2352647341404703,-0.43280322040598773
1.9765341658615023,12.214102321959825,-0.028111524033007058,1.2147000254823475,-0.4175268517277658
1.9701454467162618,11.93704237712917,-0.02744255549082198,1.1945168860885618,-0.40292693943581087
1.9639087955364343,11.664582206077633,-0.0267891938989837,1.1747019926204691,-0.38896561754654274
1.9578206506001286,11.396638576724229,-0.026151196851501163,1.1552426104526068,-0.3756075390250184
1.9518775083126767,11.133131122019897,-0.02552830130025358,1.1361265608893993,-0.36281968150621363
1.9460759274931432,10.873982215604755,-0.0249202275652559,1.1173421905466248,-0.3505711699989628
1.9404125327997872,10.619116854277728,-0.024326682811752976,1.0988783427318618,-0.33883311491677837
1.934884017409367,10.36846254683622,-0.023747364061464517,1.0807243306725425,-0.32757846395754264
1.9294871450506832,10.121949208876757,-0.023181960796656232,1.0628699124532368,-0.31678186651103746
1.9242187514801223,9.879509063178045,-0.022630157208220276,1.045305267535549,-0.30641954941207133
1.9190757454759455,9.641076545315823,-0.02209163413244888,1.0280209747446436,-0.2964692029798669
1.9140551094184266,9.406588214184342,-0.02156607071554109,1.0110079916160595,-0.28690987639333726
1.909153899514542,9.175982667122895,-0.021053145839976212,0.9942576350052097,-0.27772188154863053
1.9043734066503588,8.949298636433632,-0.020516357326835138,0.976907849249256,-0.2860354770531327
1.8997132814488933,8.726590296551898,-0.020006470511995906,0.9596864105919226,-0.2967108681817735
1.8951672861577626,8.507828569618763,-0.01952392332392286,0.9425894757831658,-0.30961952603234494
1.8907290993650834,8.292985243608648,-0.01906900530806968,0.9256133590874052,-0.32463710588226996
1.8863923486442116,8.082032936965156,-0.01864187052559793,0.9087545247690564,-0.34164314764970355
1.8821506403508408,7.874945064901375,-0.01824254941675718,0.8920095801333998,-0.36052078862849324
1.8779975868015588,7.6716958072404395,-0.017870959707433725,0.8753752690921395,-0.3811564872771736
1.8739268310456532,7.472260077678815,-0.017526916430875745,0.8588484662263282,-0.4034397568962295
1.8699320694260835,7.276613494360699,-0.017210141130599692,0.8424261713224956,-0.4272629080736654
1.8660070721109983,7.084732351657117,-0.016920270304924167,0.8261055043608448,-0.452520798816762
1.8621457017638643,6.896593593047829,-0.01665686314841644,0.8098837009373083,-0.47911059131801137
1.8583419305081124,6.712174785008067,-0.016419408640729646,0.7937581081041147,-0.5069315143257246
1.8545898553311146,6.531454091805216,-0.016207332028815375,0.7777261806163378,-0.5358846301047605
1.8508837120622088,6.354410251113247,-0.01602000074427921,0.7617854775747096,-0.5658726049801939
1.8472178880503445,6.1810225503545055,-0.01585672979367016,0.7459336594578235,-0.5967994824564121
1.843586933658664,6.0112708036797855,-0.015716786655724964,0.7301684855397529,-0.6285704578959017
1.8399855726859167,5.84513532949812,-0.015599395715992139,0.7144878116921163,-0.6610916537255577
1.83640871181801,5.68259692846766,-0.015503742265806305,0.6988895885727625,-0.6942698941133442
1.8328514492071797,5.523636861858037,-0.015428976089239063,0.6833718602065837,-0.7280124780240578
1.8293090822712026,5.368236830193013,-0.015374214658386747,0.6679327629675339,-0.7622269495192104
1.8257771148007627,5.216378952079644,-0.015338545954135203,0.652570524974799,-0.7968208641119509
1.8222512634595085,5.06804574312671,-0.015321030926334188,0.6372834659202926,-0.831701549922668
1.8187274637585105,4.923220094850706,-0.015320705604084044,0.6220699973493166,-0.8667758623035312
1.8152018755847328,4.781885253462072,-0.015336582863548293,0.6069286234214103,-0.9019499305096523
1.811670888361833,4.644024798417423,-0.015367653857318234,0.5918579421842189,-0.9371288948896322
1.8081311259210713,4.509622620615268,-0.015412889105827077,0.5768566473997457,-0.9722166329476741
1.8045794511604278,4.378662900102775,-0.01547123924759521,0.5619235309697549,-1.0071154724918097
1.801012970571224,4.251130083149469,-0.015541635441133766,0.5470574860155073,-1.0417258899266244
1.7974290387136789,4.1270088585298765,-0.015622989407084406,0.5322575106766116,-1.0759461915726776
1.793825262725989,4.006284132841017,-0.01571419309456593,0.5175227127047729,-1.1096721756971475
1.790199506955788,3.8889410046617705,-0.015814117950662555,0.5028523149408362,-1.142796772719803
1.7865498978083205,3.7749647373391007,-0.01592161376644452,0.4882456617780325,-1.1752096608142597
1.782874828912501,3.664340730160557,-0.01603550706676889,0.4737022267310377,-1.2067968538562814
1.7791729667143321,3.557054487642773,-0.016154599004264,0.45922162124968735,-1.2374402583792696
1.7754432566171645,3.4530915866311496,-0.016277662710236705,0.4448036049383472,-1.2670171958842447
1.7716849298001258,3.352437640865986,-0.016403440046620883,0.4304480973674138,-1.2953998865221032
1.7678975108600294,3.255078262624078,-0.016530637693349153,0.4161551916926695,-1.3224548898278854
1.7640808264384278,3.16099902099128,-0.016657922494489115,0.40192517033166575,-1.348042497853576
1.7602350150145614,3.0701853962599372,-0.016783915973915063,0.38775852298437097,-1.3720160757388236
1.7563605380671166,2.982622729873981,-0.016907187916909552,0.3736559673282936,-1.3942213445104636
1.7524581928334526,2.898296169263105,-0.01702624889756048,0.35961847276627956,-1.4144956007612046
1.7485291269247734,2.817190606814325,-0.017139541612691933,0.3456472876579035,-1.432666867898853
1.744574855090328,2.7392906121236464,-0.017245430860746525,0.33174397052190896,-1.4485529739892087
1.7405972784639063,2.6645803565517454,-0.017342191977704556,0.3179104257555062,-1.4619605519991812
1.7365987066727495,2.5930435289754925,-0.017427997510613438,0.30414894447278745,-1.4726839597185821
1.7325818832438764,2.524663241483175,-0.01750090187089288,0.2904622511125913,-1.480504119147236
1.728550014807631,2.4594219236083,-0.01755882366167713,0.2768535564950076,-1.4851872791893674
1.7245068046756553,2.397301203541634,-0.017599525312023585,0.26332661799774404,-1.486483711850309
1.7204564914642826,2.3382817746150764,-0.01762058956947673,0.24988580745056946,-1.484126361885611
1.716403893550332,2.282343245234461,-0.01761939229096318,0.23653618716346164,-1.4778294846355828
1.71235446029331,2.2294639703843124,-0.017593070813575643,0.2232835941421933,-1.467287328985297
1.708314331150049,2.179620862889955,-0.01753848695391123,0.210134731895699,-1.4521729555523164
1.7042904040672338,2.132789182886288,-0.017452183331439143,0.19709726813618053,-1.432137329517142
1.7002904149005822,2.0889423045415114,-0.017330331161184254,0.18417993486188777,-1.406808900586386
1.6963230301367995,2.048051460224926,-0.017168666784751218,0.17139262441276004,-1.3757939904723568
1.692397955985893,2.0100854643053836,-0.01696241278834845,0.15874647053979563,-1.338678466791255
1.688526068134576,1.975010422092101,-0.016706177223104562,0.14625389653221774,-1.2950314133778575
1.6847195683880138,1.9427894347686632,-0.01639382057308852,0.13392860193244432,-1.244411839572649
1.6809921775510728,1.9133823194789983,-0.01601827366118151,0.1217854440646387,-1.1863799390529564
1.6773593790070995,1.8867453762293565,-0.01557127889510555,0.10984014941051384,-1.1205150418734322
1.6738387358678881,1.8628312512982035,-0.01504300927195073,0.09810876303430897,-1.0464431978945146
1.6704503184755026,1.841588971164967,-0.01442148979227158,0.08660671638512975,-0.9638781752659282
1.6672173019712875,1.8229642500029222,-0.01369169720090166,0.07534738067613034,-0.8726801712010027
1.6641668312786577,1.8069001994506593,-0.012834134908923333,0.06434001543051723,-0.7729357325024976
1.6613313125238853,1.7933385686686911,-0.011822549915184452,0.05358720876051761,-0.6650581843019033
1.6587503934984587,1.78222156335557,-0.010620224218960788,0.043082402657934823,-0.5498967221473612
1.6564740878739999,1.7734940340193681,-0.00917373773285467,0.032809156787291446,-0.42882045163341337
1.654567947098521,1.7671052110194552,-0.007401399445221172,0.02274582582063691,-0.3037127640438356
1.6531226585963736,1.7630077794996133,-0.005166326660409506,0.012884013482336806,-0.17678871799316653
1.652277824155908,1.7611473793961814,-0.002180059778422432,0.0032933787214063717,-0.050170378100940244
