x,y,v_x,v_y,omega
2.375,32.48,0.0,2.5128205128205128,-5.428571428571429
2.374018042575516,31.98262672543028,-0.009819574244838177,2.460912232876664,-5.13744002294012
2.371195833360276,31.49545748740666,-0.018402517907563337,2.4107801473595134,-4.869222788055569
2.3667659637054532,31.01814739802694,-0.025896178640663958,2.3623207464377005,-4.621537230402587
2.3609334756787037,30.550371398337774,-0.032428701626832146,2.315439250453979,-4.392298099239452
2.3538794226578803,30.091822614242353,-0.038111828581399526,2.2700485905002252,-4.179674550278481
2.3457639159694987,29.642210900842105,-0.04304323830242014,2.2260685435022505,-3.9820543171919325
2.3367287408130264,29.201261547147304,-0.047308513262301746,2.1834249934457386,-3.7980136026311535
2.3268996095627568,28.76871411816836,-0.05098279924039524,2.1420492963437088,-3.626291664549473
2.3163881084840514,28.344321415421323,-0.05413221154665743,2.1018777311266743,-3.4657692778184015
2.305293384234526,27.927848540090803,-0.05681503094859911,2.062851022178527,-3.3154504103238067
2.2937036087155014,27.519072045672992,-0.05908272424164511,2.0249139219995604,-3.174446577798981
2.281697254496046,27.11777916900892,-0.06098081795290768,1.9880148446411723,-3.0419634406140084
2.2693442078468364,26.723767130318354,-0.06254964853918646,1.9521055422645013,-2.9172892845660576
2.2567067421596168,26.336842494238685,-0.06382500833301226,1.9171408185321772,-2.799785090889224
2.243840371008212,25.956820585022736,-0.06483870318103496,1.8830782736273137,-2.688875951624749
2.2307945971864647,25.58352495000334,-0.06561903503643689,1.8498780765666494,-2.5840436277598036
2.2176135716247485,25.216786866228578,-0.06619122058072743,1.8175027611809922,-2.484820081154308
2.2043366740507326,24.856444885839387,-0.0665777551594306,1.7859170427108895,-2.3907818387799162
2.190999025550549,24.502344416324718,-0.06679872984240827,1.7550876524358179,-2.301545070402364
2.1776319417461627,24.154337332266913,-0.06687210820145104,1.7249831881422104,-2.216761279497357
2.1642633340873294,23.81228161559712,-0.06681396838688539,1.6955739785557482,-2.1361135226509296
2.1509180657243547,23.476041021728598,-0.0666387152428617,1.6668319601294637,-2.0593130855534882
2.137618267550365,23.1454847692355,-0.06635926649703089,1.638730564801519,-1.9860965544281137
2.1243836192536745,22.820487251003033,-0.06598721646987521,1.611244617523141,-1.9162232307198406
2.1112315995814694,22.50092776499926,-0.0655329802521778,1.58435024251457,-1.8494728444211275
2.098177709468261,22.186690263013787,-0.06500592087990474,1.5580247773401725,-1.7856435277687674
2.085235671212167,21.877663115879045,-0.06441446168103461,1.5322466940072677,-1.7245500164215426
2.0724176064772744,21.573738893839312,-0.06376618566789359,1.5069955263900767,-1.6660220497813711
2.05973419555123,21.274814160863976,-0.0630679235925504,1.4822518033632752,-1.6099029459889855
2.0472076174445357,20.98079370374004,-0.062197857474392416,1.457952767876091,-1.5521548873620854
2.034857101426875,20.691585682959257,-0.06130730270221255,1.4341274399317403,-1.4970438055108541
2.0226863527975345,20.40709705588282,-0.06040018359119523,1.4107588308326287,-1.4444180140250158
2.0106983345787013,20.12723809908329,-0.05947999859713779,1.3878307371626653,-1.3941362083100854
1.9988953482945329,19.851922255896753,-0.05854986424454382,1.3653276947026753,-1.3460666416655944
1.9872791064337525,19.581065992865803,-0.05761255436326126,1.343234935606846,-1.3000863755478844
1.9758507974810002,19.31458866444836,-0.05667053516425912,1.3215383485675716,-1.2560805965546173
1.9646111443024599,19.052412385419352,-0.05572599662114446,1.300224441722509,-1.2139419934971114
1.9535604565835183,18.794461910438987,-0.054780880568272856,1.2792803080811566,-1.17357018865482
1.9426986779389241,18.54066452030395,-0.05383690587766755,1.2586935932692116,-1.1348712179470322
1.932025428247711,18.29094991443626,-0.05289559103446556,1.238452465407658,-1.0977570553215865
1.9215400417049215,18.045250109199472,-0.05195827439342673,1.2185455869602375,-1.062145177158863
1.9112416010289324,17.803499341663652,-0.05102613236646524,1.1989620883979388,-1.0279581629299843
1.9011289682160275,17.565633978469606,-0.05010019576258504,1.1796915435425699,-0.9951233287382946
1.891200812192119,17.33159242946899,-0.04918136447649777,1.1607239464635528,-0.9635723907190789
1.8814556336744568,17.10131506584134,-0.04827042070012551,1.1420496898129568,-0.933241155579584
1.871891787523269,16.874744142410687,-0.04736804081175171,1.1236595444935822,-0.9040692358344229
1.862507502834049,16.651823723904954,-0.04647480608044849,1.105544640563764,-0.8759997875344934
1.8533009009951757,16.432499614919518,-0.0455912123082858,1.0876964492905692,-0.8489792685041828
1.8442700119124003,16.21671929336343,-0.04471767851946784,1.070106766270308,-0.8229572152949812
1.835412788581081,16.00443184718221,-0.04385455479372588,1.0527676955418566,-0.7978860372363954
1.8267271201686248,15.795587914165601,-0.043002129330835345,1.0356716346242532,-0.7737208261196263
1.818210843753156,15.590139624661628,-0.04216063482385408,1.0188112604154644,-0.7504191801879182
1.8098617548497251,15.388040547030666,-0.04133025421045408,1.0021795158941476,-0.727941041231632
1.801677616842238,15.189245635684177,-0.04051112586441636,0.9857695975707416,-0.7062485436975464
1.7936629090603562,14.993900013006773,-0.03963595195440164,0.9676866292032874,-0.7228717238515023
1.785819230267813,14.802159425262044,-0.03880083597102946,0.9497192482439984,-0.741356348767982
1.7781386447193448,14.614001071514881,-0.03800501951365485,0.931864289227625,-0.761583577765451
1.7706133751198934,14.429402771025426,-0.03724767648085758,0.9141187156669104,-0.783437417205034
1.7632358154956407,14.248342937936222,-0.036527919761670996,0.8964796152251427,-0.8068044580590576
1.755998542784344,14.070800556880464,-0.03584480735129317,0.878944195332442,-0.8315736201861915
1.748894327256077,13.896755159424007,-0.035197347931378097,0.8615097792321125,-0.8576359022441696
1.741916141867799,13.72618680125617,-0.03458450595140035,0.8441738024462779,-0.8848841361880359
1.7350571706482407,13.55907604004625,-0.0340052062441837,0.8269338096529089,-0.9132127453112099
1.728310816203277,13.395403913884032,-0.03345833820545519,0.809787451969286,-0.9425175047883724
1.7216707064263108,13.235151920223107,-0.032942759564205164,0.7927324846399539,-0.9726953036731086
1.7151307004931229,13.078301995246079,-0.032457299767675515,0.7757667651303402,-1.003643907289226
1.7086848942161614,12.924836493569995,-0.03200076300193816,0.758888251630496,-1.0352617189324105
1.702327624829344,12.774738168209257,-0.03157193086623791,0.7420950019768907,-1.067447539768059
1.6960534752710668,12.627990150711177,-0.031169564716534256,0.7253851730039204,-1.1001003257712954
1.6898572780303174,12.484575931376703,-0.030792407690958295,0.7087570203408271,-1.133118940505853
1.6837341186185038,12.344479339475207,-0.030439186427178824,0.6922088986741247,-1.166401902479111
1.677679338727894,12.207684523357749,-0.030108612478916205,0.6757392625004717,-1.199847125740487
1.6716885391364,12.074175930367673,-0.029799383436026058,0.659346667400289,-1.233351652308914
1.665757582417831,11.943938286440805,-0.029510183749664617,0.6430297718683945,-1.2668113749215615
1.6598825955167635,11.816956575279505,-0.029239685261010617,0.6267873397446039,-1.3001207484895696
1.6540599722477807,11.693216016975569,-0.028986547428817785,0.6106182432947641,-1.3331724885266711
1.648286375780132,11.572702045945977,-0.028749417247667153,0.594521467001155,-1.3658572546825913
1.642558741170852,11.455400288032784,-0.02852692884513517,0.5784961121307806,-1.3980633173646497
1.6368742780121242,11.341296536603615,-0.028317702742142337,0.5625414021609316,-1.429676205267981
1.6312304732622658,11.230376727472148,-0.028120344756442657,0.5466566891537294,-1.4605783314576715
1.625625094334172,11.122626912438239,-0.027933444524493794,0.5308414611853529,-1.4906485954561122
1.6200561925205486,11.01803323122455,-0.027755573611740487,0.5150953509515417,-1.519761958588361
1.6145221068418176,10.916581881560496,-0.027585283175567347,0.4994181456889767,-1.5477889896313468
1.6090214684103874,10.818259087134347,-0.02742110113873617,0.4838097985725163,-1.574595377605822
1.6035532054141233,10.723051063099973,-0.027261528823904774,0.46827044177122695,-1.6000414083530643
1.5981165488325635,10.630943978785663,-0.027105036991692977,0.4528004013718845,-1.623981401366357
1.592711039011839,10.54192391720775,-0.02695006121555053,0.4374002144072481,-1.64626310322226
1.587336533238666,10.455976830941236,-0.026794996516181536,0.42207064825788587,-1.6667270339106306
1.5819932144704258,10.373088493842406,-0.026638191166219655,0.4068127227304024,-1.685205782441442
1.576681601397617,10.293244448054274,-0.026477939561868676,0.3916277351509234,-1.7015232483770437
1.571402560037247,10.216429945654244,-0.02631247404183239,0.37651728884937796,-1.7154938264954507
1.5661573170816272,10.142629884224778,-0.026139955514366757,0.36148332544527545,-1.7269215327689682
1.56094747525722,10.071828735542685,-0.025958462729703348,0.3465281613756536,-1.7355990714361031
1.5557750309836542,10.004010466492637,-0.025765980005955657,0.33165452912481885,-1.7413068454285974
1.550642394665085,9.939158451218734,-0.02556038317973858,0.3168656236142263,-1.7438119161823709
1.5455524139966341,9.877255373439795,-0.025339423504768963,0.302165154175173,-1.74286692447182
1.5405084007304053,9.818283117778755,-0.025100709157518573,0.28755740243522737,-1.7382089921623238
1.5355141614226018,9.762222648908363,-0.02484168392051668,0.2730472862686828,-1.729558636821037
1.5305740327817023,9.709053877317249,-0.02455960248847786,0.25864042964245876,-1.7166187485981068
1.525692922366859,9.658755510587188,-0.0242515016599557,0.24434323765815272,-1.699073704027345
1.5208763555603042,9.61130488929744,-0.02391416640559107,0.23016297523931553,-1.6765887277271159
1.516130529980573,9.566677807115447,-0.02354408939172254,0.21610784658063123,-1.6488096651258233
1.5114623788511803,9.524848315414243,-0.02313742190220442,0.2021870704314235,-1.6153634039077531
1.506879645350173,9.485788514050839,-0.022689913107870167,0.18841094320263055,-1.575859287995892
1.502390970732775,9.449468331998965,-0.022196833066109027,0.1747908773161236,-1.5298920177683049
1.498006000191714,9.415855304709478,-0.0216528723445009,0.16133939557873808,-1.4770467393386633
1.493735512237755,9.384914359852559,-0.021052007195089595,0.1480700529904584,-1.416907311800841
1.4895915802306197,9.35660763008326,-0.02038731287626295,0.13499724470250782,-1.349069119709885
1.4855877791780552,9.330894321330273,-0.019650697649382754,0.12213584282736067,-1.2731582693499561
1.4817394580064818,9.30773067832213,-0.01883251406634945,0.10950058725406872,-1.18885952778817
1.4780641086705195,9.287070105326062,-0.01792097929327535,0.09710514270661479,-1.0959557818429202
1.4745818809597346,9.26886351689038,-0.0169012978145716,0.08496074165021125,-0.9943817283801025
1.4713163190971168,9.25306000330464,-0.015754320811607676,0.07307439420719854,-0.8842931455551127
1.4682954387522984,9.239607881267741,-0.014454482636576449,0.061446826161787566,-0.7661489661831963
1.465553331981297,9.228456127830938,-0.012966585073438192,0.050070708206225,-0.6407944056120685
1.4631326130884381,9.21955600652656,-0.011240603855149234,0.038930504837561886,-0.509518117773198
1.4610883061945872,9.212862293632025,-0.009202465083360804,0.02800662410779939,-0.3740374536719008
1.4594946612663922,9.208332677966453,-0.00673398419858709,0.017289532547902626,-0.2363547698899434
1.4584601974418727,9.205921443186988,-0.0036106540466093566,0.006822815246760337,-0.098443051601736
