x,y,v_x,v_y,omega
2.375,32.48,0.0,2.358974358974359,-8.0
2.373532945756351,31.989758990236197,-0.013971945177608358,2.3099876387761036,-7.574907156836952
2.3693140969016975,31.509621050349878,-0.026207567723855987,2.2627546458555057,-7.183123790992928
2.3626863851032947,31.03922985161968,-0.03691349702283561,2.2171615325273586,-6.821164129972381
2.353952238493196,30.57825178918873,-0.046268851644771423,2.1731057287197677,-6.485987112269249
2.3433789154110785,30.126373776830327,-0.05442946342301476,2.1304943889793244,-6.174929519447353
2.3312030301673508,29.68330133968189,-0.06153134842201068,2.0892431076724627,-5.885650768872019
2.317634412694502,29.24875695429438,-0.06769357989083338,2.049274848399056,-5.616087039405646
2.302859415199625,28.822478595405777,-0.07302068196514,2.0105190457781212,-5.364412926802432
2.2870437568096973,28.40421845667212,-0.07760463603416931,1.9729108469233774,-5.129009218645874
2.2703349800057113,27.99374181872159,-0.08152657162284127,1.9363904668912113,-4.908435676464888
2.252864579145314,27.59082604273715,-0.08485819847618147,1.9009026377224951,-4.7014079404766465
2.2347498506847554,27.1952596716199,-0.08766302495771132,1.8663961348226936,-4.506777848285824
2.2160955061743977,26.80684162386226,-0.0899973989504547,1.8328233676310315,-4.323516595826456
2.1969950822312705,26.425380467736854,-0.09191140050789871,1.8001400240394962,-4.150700276335776
2.17753217612207,26.050693765412735,-0.0934496100559164,1.768304759999756,-3.987497418167834
2.1577815310441366,25.682607478243835,-0.09465177163868647,1.7372789273231002,-3.833158209963979
2.1378099914589153,25.320955425812514,-0.09555336726818335,1.7070263339275549,-3.6870051559766406
2.1176773457492684,24.965578792412444,-0.09618611568083739,1.677513031787414,-3.548424948124449
2.0974370709120844,24.61632567556682,-0.09657840657805569,1.6487071286470805,-3.4168613768751053
2.077136991861638,24.273050671936364,-0.09675567961667388,1.6205786202144223,-3.29180913202341
2.056819866128744,23.935614496605382,-0.09674075593469647,1.593099240080629,-3.172808368182824
2.0365239032336806,23.60388363226683,-0.09655412878019298,1.5662423250484805,-3.0594399293735397
2.0162832267372264,23.27773000527636,-0.09621421880508439,1.5399826939083519,-2.9513211432788182
1.996128285893926,22.95703068592637,-0.09573759875015851,1.5142965379963051,-2.8481021091935306
1.9760862229123086,22.641667610614867,-0.095139191550958,1.4891613221132531,-2.74946241491179
1.9562120157199907,22.33153929422412,-0.09413897218540421,1.4644416911319211,-2.6473586037406296
1.9365543483316705,22.02654794679787,-0.09307690770335979,1.4402378081657456,-2.5501229704038626
1.9171252901183973,21.726587320752955,-0.09196174194686184,1.4165300589286667,-2.457463481378399
1.89793516979842,21.43155518414148,-0.09080130871958816,1.393299813561539,-2.3691089945081116
1.8789927567204825,21.141353120621403,-0.08960262535600594,1.3705293628201471,-2.284807522196333
1.8603054235596228,20.855886342292145,-0.08837197617599173,1.3482018593633014,-2.204324659019271
1.8418792924264813,20.575063514375692,-0.0871149869967858,1.326301263650536,-2.1274421562797303
1.823719366160444,20.298796590820885,-0.08583669172737751,1.3048122940142908,-2.0539566280865094
1.805829646374989,20.02700065999482,-0.08454159194362344,1.2837203805196569,-1.9836783753414489
1.7882132396464843,19.759593799702238,-0.08323371023261356,1.2630116222668415,-1.9164303155818625
1.770872453082108,19.496496940842245,-0.08191663799953965,1.2426727478283286,-1.8520470079934719
1.7538088803656693,19.237633739073043,-0.08059357834749618,1.2226910785450176,-1.7903737641055206
1.73702347925949,18.982930453910242,-0.07926738456849633,1.2030544944340449,-1.7312658357288215
1.7205166414340902,18.732315834733633,-0.07794059472102499,1.183751402486037,-1.6745876726189612
1.7042882554033696,18.48572101322167,-0.07661546271441151,1.1647707071516862,-1.620212243157737
1.6883377632597845,18.243079401772846,-0.07529398627211228,1.1461017828371403,-1.5680204120606227
1.672664211830321,18.004326597509213,-0.07397793210372931,1.1277344482450924,-1.5179003697491122
1.6572662988086901,17.769400291490015,-0.07266885857847079,1.1096589424139338,-1.4697471085848552
1.6421424143611392,17.538240182792833,-0.07136813616011037,1.091865902321109,-1.4234619416567955
1.6272906786516792,17.31078789714656,-0.07007696583474593,1.0743463419291288,-1.3789520602509877
1.6127089756866146,17.086986909824812,-0.06879639573729787,1.0570916325636972,-1.336130126522292
1.5983949838373679,16.86678247253068,-0.06752733616029262,1.0400934845232772,-1.2949138982336612
1.584346203364126,16.65012154402377,-0.06627057310867773,1.0233439298282727,-1.2552258827374352
1.5705599812302915,16.436952724259072,-0.06502678054688935,1.0068353060259623,-1.216993017648424
1.5570335334686374,16.227226191824023,-0.06379653146886255,0.9905602409744961,-1.1801463759045152
1.543775696732736,16.021057642825557,-0.062468580301627795,0.9729497494870957,-1.1754697041890652
1.5307924795572088,15.818573892731035,-0.06118110708434594,0.9554669180797731,-1.1733149879422464
1.518075412135187,15.619748527643033,-0.059933820744432965,0.9381079875202539,-1.173542145088496
1.5056160971908934,15.424555906071777,-0.058726321582172274,0.9208693607774043,-1.1760154408224317
1.4934062317678096,15.2329711256404,-0.057558111018625374,0.9037475957119112,-1.1806031632066671
1.4814376270516925,15.044969991264203,-0.05642860056344182,0.8867393983471075,-1.1871773119206035
1.46970222638631,14.860528984685239,-0.055337120059250164,0.8698416166906598,-1.1956132988063655
1.4581921216283413,14.679625235249173,-0.05428292525473598,0.8530512350814049,-1.205789658921842
1.4468995679773968,14.502236491816529,-0.0532652047542601,0.8363653690390296,-1.217587770865258
1.435816997407469,14.328341095704683,-0.05228308638790669,0.8197812605975879,-1.2308915851813318
1.4249370308173135,14.157917954560695,-0.05133564304214582,0.8032962741070495,-1.2455873596962153
1.4142524890091672,13.990946517067982,-0.050421897987820256,0.786907892490228,-1.2615634006574092
1.4037564025978622,13.827406748392225,-0.04954082973889416,0.7706137139455742,-1.2787098085758781
1.393442020945686,13.667279106273543,-0.04869137647230773,0.7544114490894666,-1.2969182276808287
1.3833028202122777,13.51054451767299,-0.047872440036341814,0.7382989185348363,-1.3160815979031377
1.3733325106033925,13.357184355881675,-0.04708288957208796,0.7222740509062561,-1.336093908301233
1.3635250428974817,13.207180418000537,-0.04632156476991888,0.7063348812950446,-1.3568499508333036
1.353874614324715,13.060514902697594,-0.04558727878024093,0.6904795501615343,-1.3782450733619693
1.3443756738692871,12.91717038814761,-0.044878820795261266,0.6747063026954659,-1.4001749307518294
1.335022927062605,12.777129810056383,-0.04419495831599633,0.6590134886495603,-1.4225352328864858
1.3258113403322178,12.640376439668277,-0.04353443911626264,0.6433995626657301,-1.4452214883895356
1.3167361449691555,12.506893861650966,-0.04289599291290262,0.627863085118197,-1.4681287427834777
1.3077928407746575,12.376665951745736,-0.04227833274898325,0.612402723503039,-1.4911513097613747
1.2989771994461297,12.249676854064923,-0.04168015609413836,0.5970172544094778,-1.514182494178403
1.2902852677615693,12.125910957909891,-0.041100145663579515,0.5817055661146251,-1.5371143052942269
1.2817133706216661,12.005352873973553,-0.04053696995454614,0.566466661850509,-1.5598371587127533
1.2732581140093513,11.887987409780237,-0.039989283496071316,0.5512996638001129,-1.5822395653739243
1.2649163879277525,11.773799544202987,-0.03945572680486979,0.5362038178879721,-1.604207805853892
1.2566853693793698,11.662774400883475,-0.03893492603687004,0.5211784994407057,-1.6256255881270272
1.24856252545186,11.5548972203628,-0.03842549232036724,0.5062232198038187,-1.6463736868384675
1.240545616579165,11.450153330712002,-0.037926020752917074,0.4913376340133032,-1.6663295620334735
1.2326327000509234,11.348528116429026,-0.03743508903986002,0.4765215496340958,-1.6853669551956798
1.2248221338482308,11.250006985343745,-0.03695125574768841,0.46177493689237636,-1.7033554603690149
1.2171125808899967,11.154575333244313,-0.03647305814025488,0.4470979402450554,-1.720160068089798
1.2095030137814744,11.062218505906092,-0.035999009559957065,0.4324908915475335,-1.7356406798534356
1.2019927201651945,10.972921758168624,-0.03552759630937512,0.4179543249997625,-1.749651590908261
1.1945813087846846,10.886670209666253,-0.03505727398119533,0.40348899407043215,-1.762040939340828
1.1872687163832454,10.80344879677385,-0.0345864631753681,0.38909589061910665,-1.7726501197389535
1.180055215573975,10.72324222028104,-0.03411354453196944,0.3747762664552713,-1.7813131602556094
1.1729414238335731,10.646034888256306,-0.03363685299566798,0.36053165758982547,-1.7878560627380895
1.1659283137917325,10.57181085350755,-0.03315467121233845,0.34636391144594125,-1.7920961068571257
1.1590172250108222,10.500553744989393,-0.03266522193918792,0.3322752172984123,-1.7938411210424505
1.1522098774780538,10.432246692452303,-0.032166659325273385,0.3182681401976758,-1.7928887257444261
1.1455083870657368,10.366872243578783,-0.031657058887269066,0.3043456585977596,-1.789025558428826
1.1389152832565148,10.3044122728135,-0.03113440596246401,0.29051120583348977,-1.7820264952366085
1.1324335294824228,10.24484788107743,-0.030596582362221174,0.27676871546241594,-1.7716538920461662
1.1260665464933655,10.188159285575157,-0.03004135086689559,0.26312267027352976,-1.7576568786563114
1.1198182392583254,10.134325698981467,-0.02946633708586834,0.24957815442826425,-1.7397707552047237
1.1136930280205208,10.083325197459825,-0.02886900803607865,0.23614090768262666,-1.7177165614638257
1.1076958842898443,10.03513457726763,-0.028246646541793305,0.22281737986207661,-1.6912009196712732
1.10183237278353,9.98972920020804,-0.027596320185009238,0.20961478261021038,-1.6599162932627298
1.0961087006517858,9.947082828989814,-0.02691484297445861,0.19654113375384036,-1.623541861573268
1.0905317757991397,9.907167454788102,-0.026198727050741086,0.18360528721483688,-1.5817452898521935
1.0851092768115342,9.869953121141343,-0.02544412045026465,0.17081693799238942,-1.5341857817439724
1.0798497380420273,9.835407751013296,-0.024646724973611433,0.15818658703661487,-1.4805189456323384
1.074762654975459,9.803496987696498,-0.023801685184183,0.14572544455194145,-1.420404194270172
1.0698586173600813,9.774184065577224,-0.0229034349622712,0.13344524229827648,-1.353515631720034
1.0651494811765412,9.747429733931707,-0.021945481071443923,0.12135791623045251,-1.2795576520089562
1.0606485959262923,9.723192265960932,-0.02092009274044926,0.10947511206262323,-1.1982867369105408
1.0563711118566201,9.701427595625109,-0.019817850780238185,0.09780746256426674,-1.1095410846833647
1.0523344038782676,9.682089634429882,-0.01862698710883437,0.08636359643788952,-1.0132794868976511
1.0485586669237952,9.66513082402264,-0.01733241245756885,0.0751488836310787,-0.9096298398926942
1.0450677642585382,9.650502967681408,-0.0159142795924983,0.06416403390445431,-0.7989450838991995
1.0418904515657146,9.63815833529404,-0.014345841291535669,0.053403893594302705,-0.6818592566987122
1.0390621707670589,9.628050921320671,-0.01259016631471026,0.042857191866345505,-0.5593281704209822
1.0366277578032554,9.620137506756286,-0.010594719054845483,0.03250866112781165,-0.43262930104381037
1.0346458164722157,9.614377742098942,-0.008280912669342073,0.022346240370707367,-0.3032889192171776
1.033196939035985,9.610731456097593,-0.005517920056664727,0.012380292975460798,-0.1729093481338104
1.0324052299199602,9.609147048012002,-0.0020221667626182725,0.0027093078396931113,-0.042903762995533945
