x,y,v_x,v_y,omega
2.375,32.48,0.0,2.2051282051282053,-6.163265306122449
2.373948692539529,32.02150167824937,-0.010012452004489135,2.1615224782111007,-5.854445041956808
2.3709192927045666,31.57201221348087,-0.01883897499515124,2.1193295672031582,-5.568162381428949
2.366146934837075,31.131243451856474,-0.026612052314290736,2.0784681625530403,-5.30222105529824
2.3598406480159784,30.69892358232401,-0.03344782217234327,2.0388639282323004,-5.0546843156919365
2.352186548007718,30.274795759987672,-0.03944836838251891,2.0004486654471245,-4.823839106882741
2.3433505867368716,29.85861689161146,-0.0447036437207784,1.9631596048025106,-4.608165921698117
2.3334809293448022,29.450156558741412,-0.04929309334654968,1.9269388034836448,-4.40631331764942
2.3227100162198546,29.04919605834638,-0.053287031652949415,1.8917326288500134,-4.217076275205506
2.3111563573068654,28.65552754439173,-0.05674781513742685,1.8574913135752105,-4.039377741904505
2.298926097934962,28.268953256576758,-0.059730845547363735,1.824168570376927,-3.872252831881506
2.286114388892284,27.889284824737395,-0.06228543104956994,1.791721256664617,-3.714835249424511
2.272806588186503,27.516342639258074,-0.06445552805310642,1.7601090812336888,-3.566345583654991
2.259079317604218,27.149955279339224,-0.06628038225437233,1.7292943465648596,-3.426081184054475
2.245001393623458,26.789958992199903,-0.0677950842290552,1.6992417214286857,-3.2934073768507863
2.230634649289441,26.43619721731169,-0.06903105228539294,1.669918039411437,-3.1677498229088954
2.2160346612156077,26.088520150603127,-0.07001645317968862,1.6412921197177566,-3.048587850783115
2.2012513938265417,25.746784344276218,-0.0707765695733191,1.6133346072051733,-2.9354486255505683
2.186329771242839,25.410852338464775,-0.07133412170004098,1.5860178290942966,-2.8279020361783767
2.171310185761494,25.080592321458994,-0.07170954955086634,1.559315666198849,-2.7255562024293023
2.156228950661787,24.755877815638957,-0.07192126092252832,1.53320343684913,-2.628053517429196
2.1411187040278996,24.43658738661454,-0.07198584987639879,1.5076577919548322,-2.535067154594523
2.1260087693946934,24.12260437337196,-0.07191828948747266,1.4826566198792617,-2.446297978118408
2.1109485426390706,23.813824735223186,-0.07151244151845904,1.4581018386805018,-2.3557383583572418
2.095981760825978,23.510148303888954,-0.07102833765385283,1.4340546502169103,-2.2694808554271924
2.0811238968932733,23.21147048960165,-0.07047512837190198,1.4104959620431692,-2.187268423253444
2.0663885972237095,22.917690612965735,-0.06986105895728131,1.3874076249655056,-2.1088623208075417
2.05178786218682,22.628711713173775,-0.06919356044166054,1.3647723730531751,-2.0340405978899363
2.03733220860188,22.344440368327344,-0.068479330843488,1.3425737683414083,-1.9625967234771564
2.0230308160421213,22.064786526924102,-0.06772440782087688,1.3207961497846925,-1.894338341567976
2.0088916586810632,21.78966334965957,-0.06693423371301002,1.2994245860679916,-1.8290861412315984
1.994921624189498,21.518987060770197,-0.06611371382570624,1.2784448319260493,-1.7666728291006588
1.9811266210229375,21.252676808213856,-0.06526726871296618,1.2578432876581644,-1.706942193895179
1.9675116752908821,20.990654532046104,-0.06439888111613291,1.237606961558505,-1.6497482537379475
1.9540810182685875,20.73284484040633,-0.06351213814381489,1.2177234350107826,-1.5949544780504
1.9408381654967222,20.479174892577944,-0.06261026920728378,1.1981808300214642,-1.542433076720718
1.9277859883124975,20.229574288631937,-0.06169618016628543,1.1789677789881066,-1.4920643500294164
1.9149267785658077,19.983974965203664,-0.060772484087901986,1.1600733965192527,-1.4437360935165424
1.9022623071941744,19.74231109698945,-0.05984152897527175,1.141487253139955,-1.3973430525911172
1.8897938772595826,19.504519003582825,-0.05890542278274624,1.123199350732665,-1.3527864222281887
1.8775223719875302,19.27053706130029,-0.05796605599870468,1.105200099577209,-1.309973387580958
1.8654482982928235,19.040305619673745,-0.05702512204612154,1.0874802968660462,-1.2688167017627463
1.8535718262270082,18.813766922311686,-0.05608413572354789,1.0700311065821781,-1.22923429743286
1.8418928247381157,18.59086503185366,-0.05514444988495305,1.0528440406370894,-1.1911489291575912
1.8304108940939707,18.371545758763382,-0.05420727053547473,1.0359109411750855,-1.1544878438177204
1.8191253952851207,18.15575659372436,-0.05327367050119191,1.0192239639584868,-1.1191824766014382
1.808035476691998,17.9434466434194,-0.05234460181426285,1.002775562755416,-1.0851681703603826
1.7971400982728114,17.734566569490937,-0.051420906939895684,0.986558474658498,-1.0523839163199051
1.7864462550442162,17.529231837987197,-0.05042521904672416,0.9690103968057244,-1.051554852832075
1.7759582050663867,17.327569099293726,-0.04946097121831941,0.9515871145606734,-1.0531064681521043
1.7656693416172375,17.129552526956978,-0.04852820448786096,0.9342850029321448,-1.0569056903313896
1.7555730619416208,16.935157039691312,-0.04762684004182505,0.9171005900741982,-1.0628233984394289
1.7456627913537677,16.74435826992201,-0.04675668936629888,0.9000305505858344,-1.0707341234949501
1.7359320052924094,16.557132533679525,-0.04591746359901812,0.8830716993425746,-1.080515760604664
1.7263742494893952,16.373456801735905,-0.04510878214397425,0.8662209858347626,-1.092049291102838
1.7169831584011912,16.19330867187924,-0.044330180600827364,0.8494754889906225,-1.1052185135339736
1.7077524720421118,16.01666634222638,-0.04358111805707202,0.8328324124652012,-1.1199097823618436
1.6986760513484942,15.843508585477704,-0.042860983786903256,0.816289080379333,-1.1360117533213452
1.6897478921941858,15.673814724020822,-0.042169103396986256,0.7998429334957204,-1.1534151343552508
1.6809621381696416,15.507564605792446,-0.04150474445581609,0.7834915258221627,-1.1720124410961972
1.6723130922295772,15.344738580809455,-0.04086712164003621,0.7672325216349072,-1.1916977558651896
1.6637952273074397,15.185317478281391,-0.04025540142794013,0.7510636929180912,-1.2123664891615773
1.6554031959889306,15.029282584217068,-0.03966870636738434,0.7349829172183118,-1.2339151426158104
1.647131839331396,14.876615619437906,-0.03910611894246891,0.7189881759165474,-1.2562410723652453
1.638976194911077,14.727298717909754,-0.03856668506057092,0.7030775529229997,-1.2792422517946551
1.6309315041759618,14.581314405303424,-0.03804941717862259,0.6872492338039699,-1.3028170325567279
1.6229932191782932,14.438645577691872,-0.03755329708488682,0.6715015053536781,-1.3268639027534521
1.6151570087576432,14.299275480288792,-0.03707727834987484,0.6558327556280327,-1.3512812411166144
1.6074187642428743,14.163187686129358,-0.03662028845744952,0.6402414744618133,-1.3759670659743664
1.5997746047392654,14.030366074588827,-0.03618123062453867,0.6247262544956214,-1.4008187777306667
1.592220882065591,13.900794809628632,-0.0357589853152197,0.6092857927443316,-1.4257328935150824
1.5847541854050116,13.774458317652279,-0.0353524114522015,0.5939188927447535,-1.4506047725817577
1.5773713457333116,13.65134126484476,-0.03496034732589345,0.5786244673268434,-1.4753283309482297
1.5700694400882735,13.531428533859117,-0.03458161119828067,0.5634015420602224,-1.4997957436673308
1.562845795744907,13.41470519970201,-0.03421500159568589,0.5482492594360489,-1.523897133019075
1.555697994362839,13.3011565046566,-0.03385929728115089,0.53316688385358,-1.5475202407950883
1.548623876174493,13.1907678320654,-0.033513256893571805,0.5181538074911846,-1.5705500827273502
1.541621544285802,13.083524678777735,-0.03317561823682265,0.5032095571532403,-1.5928685829882714
1.5346893691651617,12.979412626045914,-0.0328450971978431,0.48833380219742845,-1.6143541865642879
1.5278259934012501,12.878417308630723,-0.032520386267983856,0.47352636366152256,-1.6348814471859334
1.5210303368162565,12.780524381850139,-0.03220015263671618,0.45878722472499023,-1.6543205883921352
1.5143016020281936,12.68571948627486,-0.03188303582102603,0.4441165426586256,-1.6725370352273015
1.5076392805643186,12.593988209740026,-0.03156764478730795,0.42951466243502157,-1.6893909140338157
1.5010431596375553,12.505316046303996,-0.03125255451519967,0.41498213219384006,-1.70473651783407
1.4945133297093018,12.419688351741929,-0.03093630194435695,0.4005197207782432,-1.718421734929346
1.4880501929754275,12.337090295114113,-0.030617381235398686,0.38612843758191556,-1.7302874386255522
1.4816544729279073,12.257506805896288,-0.030294238264795173,0.3718095549688134,-1.7401668364951142
1.4753272251628218,12.180922516101976,-0.029965264259826613,0.3575646335484401,-1.747884778393821
1.469069849626905,12.107321696765819,-0.02962878846319044,0.343395550605424,-1.7532570237020746
1.4628841045201535,12.036688188093365,-0.02928306969634842,0.32930453198938237,-1.7560894701345908
1.456772122102238,11.969005322519333,-0.028926286664752415,0.3152941877633009,-1.7561773492168142
1.4507364266869271,11.904255839857136,-0.028556526814396865,0.30136755187665953,-1.7533043975176805
1.4447799551534652,11.84242179367384,-0.028171773504288875,0.28752812605949357,-1.7472420184574038
1.4389060803597047,11.78348444799705,-0.027769891198192474,0.2737799280051453,-1.7377484576764441
1.4331186379130867,11.727424163468768,-0.027348608293408697,0.2601275436927976,-1.7245680265386825
1.427421956848659,11.674220272129006,-0.026905497082091587,0.24657618335255427,-1.7074304247195269
1.4218208948879663,11.623850940173519,-0.02643795016260168,0.23313174003303014,-1.6860502359099871
1.4163208791236193,11.576293018335107,-0.025943152354989035,0.21980084890420612,-1.6601267031015825
1.4109279532144912,11.531521880060268,-0.025418046779564007,0.20659094418948953,-1.6293439353462615
1.405648832521021,11.489511248497003,-0.0248592931582472,0.1935103087939736,-1.5933717612376392
1.4004909691138185,11.45023301462415,-0.024263215481777786,0.1805681090427271,-1.5518675321324797
1.39546262933683,11.413657050843142,-0.023625734775253662,0.16777440315733153,-1.5044792985220259
1.3905729877312893,11.379751027295576,-0.0229422805156094,0.15514010681947826,-1.4508509454906533
1.385832242834185,11.34848024241479,-0.0222076708853849,0.14267689204513392,-1.3906300870367638
1.3812517629723153,11.319807485171658,-0.021415946846707872,0.13039698646090608,-1.3234797884110883
1.3768442741648146,11.293692954506394,-0.020560137034250976,0.11831282939874849,-1.2490954991083847
1.3726241083533444,11.270094271662572,-0.019631918313085063,0.10643653101859132,-1.1672288868533607
1.3686075394805688,11.248966632892497,-0.018621118570491983,0.09477907631544066,-1.0777204323127392
1.3648132490120075,11.230263160794625,-0.017514981130091107,0.08334922937858871,-0.9805423832006144
1.361262983678217,11.213935516137731,-0.016297069667913774,0.07215214830610144,-0.8758524128722867
1.357982500300701,11.199934815378448,-0.014945629165574303,0.06118785892517964,-0.7640551589777244
1.3550029433437174,11.188212838348832,-0.013431103758078475,0.05045001754736389,-0.6458625771485431
1.3523628916214838,11.178723367193715,-0.011712245977480317,0.039925898215646884,-0.5223341613910665
1.3501115124237826,11.171423211369373,-0.00972946066729323,0.029599395349524438,-0.3948665583841253
1.3483138437885742,11.166271910249606,-0.007391193001357985,0.019460615314918512,-0.2650957151944504
1.347061449118467,11.163227629524297,-0.004536375285379187,0.009532534449912202,-0.13468347779946221
1.346505349598747,11.162228648352034,-0.0007598106167161951,-1.8428047398611966e-05,-0.0050403897994877045
