x,y,v_x,v_y,omega
2.375,32.48,0.0,3.4871794871794872,-4.816326530612245
2.3737215212577216,31.791591108545585,-0.012784787422785516,3.396909427364636,-4.470940084969872
2.370096528019435,31.120819169660468,-0.02346514496007934,3.310809961486534,-4.162904040743933
2.3645125541081695,30.46688061581906,-0.03237459415257596,3.228575576927537,-3.8870193911939293
2.3572961530586216,29.829029885821704,-0.03978941634290358,3.1499317230460413,-3.638939506957468
2.348723267312523,29.206573649527442,-0.045939441118084026,3.0746306398965437,-3.4150114948885215
2.3390276628590696,28.59886579464379,-0.051016603416444845,3.0024479089399945,-3.2121504414553788
2.3284078250722127,28.005303046548967,-0.055181774452128705,2.933179572008256,-3.027739035045162
2.3170326229579805,27.425321119032297,-0.058570246690190966,2.86663970315843,-2.8595469334902646
2.3050459821022784,26.85839131415077,-0.06129616186682896,2.8026583456568552,-2.705665607837666
2.2925707555540047,26.30401750493852,-0.06345610361591122,2.7410797464656196,-2.56445539941834
2.279711942602916,25.76173344674363,-0.06513202589497274,2.681760835483291,-2.434502276419622
2.266559374970851,25.2311003724026,-0.06639365042567899,2.624569907926977,-2.3145823391583673
2.253189966179943,24.711704833942147,-0.06730043748339802,2.569385476677573,-2.2036325499209264
2.2396696012077135,24.2031567594871,-0.06790321223889692,2.516095267872871,-2.100726489096472
2.226054728806238,23.705087698895888,-0.06824551177585868,2.4645953380392998,-2.0050541899847283
2.2123937071644093,23.21714923559485,-0.06836470464242829,2.414789294971069,-1.915905298748454
2.198727944257135,22.739011545331557,-0.0682929244303158,2.366587607661839,-1.8326549572037847
2.185092866740904,22.270362085259016,-0.06805785073199459,2.319906993063609,-1.7547519246509349
2.1715187452281044,21.810904399009235,-0.06768336439600359,2.27466986943418,-1.6817085483288767
2.1580313988987436,21.360357025301255,-0.06719009889760012,2.2308038676456214,-1.6130922660386278
2.1446527984515416,20.91845249922244,-0.06659590557442092,2.1882413931425555,-1.5485183833459408
2.1314015831720563,20.484936436675962,-0.06591624722043439,2.1469192323222046,-1.4876439148438219
2.1182935052586247,20.059566693643223,-0.06516453191388234,2.106778198005193,-1.4301623167588047
2.105341812382973,19.64211259290135,-0.06435239684263337,2.0677628094135745,-1.3757989686745493
2.0925575776807555,19.2323542116901,-0.06348995017954268,2.0298210026989087,-1.3243072868363577
2.0799499848958183,18.830081724561126,-0.0625859776698282,1.9929038685908442,-1.2754653715711293
2.0675265751830003,18.435094796283707,-0.06164811945835126,1.9569654141833195,-1.2290731077338437
2.0552934610614932,18.047202020239844,-0.06068302175671854,1.9219623462553252,-1.184949650501557
2.043255512166976,17.666220398229555,-0.059696467188451195,1.8878538738475397,-1.1429312398542995
2.0314165167457903,17.291974858035374,-0.05869348702340953,1.8546015280942787,-1.1028692961656634
2.0197793222439566,16.924297805470992,-0.05767845799492518,1.8221689975495496,-1.0646287568380466
2.0083459578480225,16.563028707970766,-0.05665518596442001,1.7905219774527013,-1.0280866201494383
1.9971177414173407,16.20801370706967,-0.05562697834239805,1.7596280315582502,-0.9931306676639859
1.9860953728952553,15.859105257382836,-0.05459670687845329,1.729456465310111,-0.959658340885573
1.9752790159888383,15.516161789924215,-0.05356686218571906,1.6999782092761115,-0.9275757514545147
1.964668369654429,15.17904739780888,-0.05253960115837347,1.6711657118772396,-0.8967968072257066
1.954262730711852,14.847631542566159,-0.051516788267394836,1.6429928405499545,-0.8672424391226303
1.9440610487277121,14.521788779454049,-0.0505000315740038,1.6154347905711477,-0.8388399158175595
1.9340619741525669,14.201398500311367,-0.04949071417744863,1.5884680008556837,-0.8115222351113
1.924263900563808,13.886344692615065,-0.04849002171013973,1.5620700761073383,-0.7852275824309773
1.9146650017522489,13.57651571352767,-0.047498966405453806,1.5362197147666348,-0.7598988481771932
1.9052632642927838,13.271804077825543,-0.04651840818919661,1.510896642254622,-0.735483196769809
1.8960565161556064,12.972106258693987,-0.04554907318257599,1.4860815490609323,-0.7119316811957328
1.887052305454005,12.677323910844994,-0.04449303383343863,1.4617419294290002,-0.6864218262459473
1.8782570146335091,12.387362194507968,-0.043459874371520955,1.4378752339412482,-0.662072157378731
1.8696660795427864,12.102128205645638,-0.042449476535705126,1.4144646546820707,-0.6388162221760373
1.861274966029423,11.821532325414136,-0.041461658597929066,1.3914941476329454,-0.6165920958621129
1.8530791816432766,11.54548807174606,-0.040496185263536044,1.3689483890478094,-0.5953420238271534
1.845074285486532,11.273911959362248,-0.03955277630390849,1.346812734790318,-0.5750120961366807
1.837255896448035,11.006723367643264,-0.038631114081061096,1.325073182399512,-0.5555519508350341
1.8296197000296133,10.743844415836179,-0.03773085010315639,1.3037163356713344,-0.5369145032020133
1.8221614539460973,10.48519984511282,-0.0368516107320029,1.282729371562269,-0.5190556984303811
1.8148769926580868,10.230716907032761,-0.035993002148101104,1.2621000092383274,-0.5019342854640424
1.8077622309767392,9.980325257998139,-0.035154614665376095,1.2418164811078962,-0.48551160997695153
1.8008131668625929,9.733956859318273,-0.034336026476088105,1.221867505690776,-0.46975142468519865
1.7940258835253542,9.491545882530371,-0.03353680689629582,1.2022422621882252,-0.454619715372772
1.7873965509183796,9.253028619648536,-0.0327565191734518,1.1829303666301303,-0.44008454117820756
1.7809214267100288,9.018343398036954,-0.031994722910054,1.1639218494856705,-0.4261158878373384
1.7745968568039627,8.787430499625074,-0.031250976150607256,1.145207134633138,-0.4126855327089124
1.7684192754715689,8.560232084202458,-0.030524837173331553,1.12677701959303,-0.39976692052693547
1.7623852051519382,8.336692116549536,-0.029815866022975906,1.1086226569361979,-0.38733504892794146
1.7564912559679746,8.116756297177332,-0.029123625816659407,1.0907355367858418,-0.37536636289448705
1.7507341250012307,7.900371996464898,-0.02844768385078072,1.0731074703385028,-0.36383865733933274
1.7451105953627883,7.687488191997545,-0.027787612533640725,1.0557305743350196,-0.3527309871291474
1.7396175350928798,7.47805540892227,-0.027142990165447627,1.0385972564177237,-0.3420235839131667
1.7342518959178583,7.272025663148998,-0.026513401584765398,1.0217002013149987,-0.33169777918192705
1.729010711889564,7.0693524072376235,-0.02589843869817769,1.0050323577987617,-0.3217359330347626
1.7238910979289532,6.869990478821297,-0.02529770090793001,0.9885869263644933,-0.31212136818286806
1.7188953945360974,6.67407282430694,-0.024659333020627984,0.97058961877907,-0.3380982717507693
1.7140232962256874,6.481743571467593,-0.024061650083472115,0.9527029096144046,-0.36571102958773916
1.7092667564012052,6.292980897705117,-0.023503748161351506,0.9349238280103475,-0.3948516071135442
1.7046179144204978,6.107763563057116,-0.02298467164572043,0.9172495184696532,-0.4254143950182986
1.7000691053675405,5.926070887543233,-0.022503418883852783,0.8996772366691902,-0.45729597398378297
1.6956128687488066,5.747882729310511,-0.022058947303487696,0.8822043456580326,-0.4903948845493813
1.6912419562116598,5.573179463501528,-0.021650178067979125,0.8648283124317792,-0.5246114011681536
1.6869493383754866,5.401941961770852,-0.021276000293754906,0.8475467048749823,-0.559847309505093
1.6827282108602355,5.234151572376739,-0.020935274858754127,0.8303571890661429,-0.5960056860291044
1.678571999591608,5.06979010077589,-0.020626837827519923,0.8132575269423558,-0.6329906789425185
1.674474365457281,4.9088397906493135,-0.02034950351575278,0.7962455743234192,-0.6707072894767608
1.6704292083842702,4.7512833052871635,-0.02010206721435233,0.7793192792980773,-0.7090611525598001
1.6664306709038081,4.597103709259546,-0.019883307590268295,0.7624766809780937,-0.7479583158297736
1.6624731412668994,4.446284450298826,-0.01969198877881845,0.7457159086291002,-0.7873050159292181
1.658551256171069,4.298809341316847,-0.019526862179487056,0.7290351811906723,-0.827007450965008
1.6546599031566638,4.154662542477588,-0.019386667964564272,0.7124328072019208,-0.866971547959707
1.6507942227294778,4.013828543242084,-0.019270136307296733,0.6959071851531053,-0.9071027240497562
1.646949610265402,3.8762921442979277,-0.019175988333461715,0.6794568042884638,-0.9473056401038276
1.6431217177523139,3.7420384392800123,-0.019102936797419475,0.6630802458906757,-0.9874839453397235
1.6393064554245012,3.6110527961826193,-0.01904968648070491,0.6467761850832546,-1.027540011409278
1.6354999933456256,3.4833208383549135,-0.01901493430805211,0.6305433931937903,-1.067374654296565
1.6316987629975843,3.358828424962688,-0.018997369172361233,0.6143807407284781,-1.1068868422340479
1.6278994589347011,3.2375616307881465,-0.01899567145646892,0.5982872010169247,-1.1459733876827687
1.6240990405654925,3.119506725226856,-0.019008512235618842,0.582261854595971,-1.184528621244926
1.6202947341279117,3.0046501503260146,-0.019034552140189075,0.5663038944124444,-1.2224440451790266
1.6164840349285476,2.892978497691015,-0.019072439853451258,0.5504126319375404,-1.2596079639681856
1.6126647099218188,2.7844784840672396,-0.019120810213838213,0.534587504300222,-1.2959050891505326
1.608834800711905,2.6791369253808277,-0.019178281885296702,0.5188280825638926,-1.3312161153571644
1.6049926270681052,2.5769407089954406,-0.019243454552702776,0.5031340812899728,-1.3654172642189013
1.6011367910536443,2.47787676391102,-0.019314905591907378,0.4875053695542505,-1.3983797925011732
1.5972661818788905,2.381932028594857,-0.019391186155629632,0.47194198360736905,-1.4299694605121704
1.5933799816026304,2.2890934160941256,-0.01947081660697343,0.4564441413999588,-1.4600459565121788
1.58947767181977,2.1993477760315194,-0.019552281221629598,0.4410122592260953,-1.4884622725465833
1.5855590414908445,2.112681853031276,-0.019634022067625167,0.42564697077632113,-1.5150640268542162
1.5816241960883293,2.0290822410602836,-0.019714431957526056,0.4103491489336105,-1.53968872780113
1.5776735682573815,1.9485353330976842,-0.019791846351954433,0.3951199306923757,-1.562164974209021
1.5737079302147148,1.8710272654652975,-0.01986453407470994,0.37996074563149,-1.5823115870635402
1.5697284081394338,1.7965438560595253,-0.0199306866780997,0.36487334842624725,-1.5999366680122586
1.5657364988444766,1.7250705356230007,-0.01998840627147418,0.3498598559389895,-1.6148365809582543
1.5617340890578018,1.656592271081113,-0.020035691595273672,0.3349227894798756,-1.6267948546611135
1.5577234776897342,1.591093479846002,-0.02007042208540298,0.32006512287122546,-1.6355810069191221
1.5537074015186056,1.5285579338618724,-0.02009033962588246,0.30529033697006935,-1.6409492951294802
1.5496890647932702,1.468968652036235,-0.02009302762747247,0.2906024812863183,-1.6426374045434518
1.545672173331519,1.4123077795825516,-0.020075886990038636,0.27600624325049905,-1.6403650954243503
1.5416609737928395,1.3585564527083243,-0.020036108396757034,0.26150702549176075,-1.6338328451466222
1.537660298929905,1.3076946470474944,-0.01997064023258449,0.24711103111653313,-1.6227205433363308
1.5336756197875288,1.2597010083031002,-0.019876151191180254,0.23282535632739879,-1.60668633079623
1.5297131060394156,1.214552663807062,-0.019748986289951774,0.21865808863297775,-1.5853657210666567
1.5257796959624486,1.1722250142302144,-0.019585114479717534,0.20461840713548418,-1.558371214137498
1.521883177995162,1.1326915056576645,-0.019380065193150303,0.19071667859001545,-1.5252927152498466
1.5180322864934963,1.0959233839392404,-0.019128849823507252,0.1769645385942104,-1.485699222355658
1.5142368153185641,1.0618894360134234,-0.018825861925812322,0.1633749406639538,-1.4391424635138237
1.5105077544934826,1.030555727335333,-0.018464746325003646,0.14996214611694064,-1.3851634762123535
1.5068574577243448,1.0018853513756198,-0.018038221366374153,0.13674161348019953,-1.323303554642495
1.5032998527159862,0.9758382173713009,-0.017537828717212343,0.12372972656297625,-1.25312157493618
1.4998507129505017,0.9523709171636128,-0.016953568937634274,0.11094327551392137,-1.1742204411013604
1.4965280206023062,0.9314367317309653,-0.016273354544318414,0.09839857881255965,-1.0862861864281104
1.49335246820765,0.9129858619444811,-0.015482169402244735,0.0861101190522977,-0.989143804345634
1.4903481758111863,0.8969659905765397,-0.014560754562392704,0.07408859462710335,-0.8828333699650149
1.4875437473750521,0.8833232875785946,-0.0134835297989475,0.062338435352351944,-0.7677067421639884
1.4849738675652175,0.8720039212394539,-0.012215268299398101,0.05085522803905776,-0.6445361270341824
1.4826817771380725,0.8629559625147394,-0.010705635972052045,0.0396243592080934,-0.5146074769316973
1.4807232602397202,0.8561311457635483,-0.008879533011471867,0.028623808303825313,-0.3797440156175359
1.4791736410171539,0.851485030311494,-0.006616659214193334,0.017837346216720847,-0.24218003588787385
1.4781429346804302,0.8489715848827295,-0.0036904041530422278,0.007297108070925387,-0.10421022258085838
