x,y,v_x,v_y,omega
2.375,32.48,0.0,3.0769230769230766,-7.26530612244898
2.3727904889516904,31.781721409825384,-0.01921313955051739,2.9950646637257443,-6.7350401850066115
2.366529011256867,31.101812818107458,-0.03523449257838402,2.917183959908372,-6.263186613299981
2.3568906928423154,30.439396326007042,-0.04857697189597707,2.842959449660481,-5.841421267740485
2.3444430633802327,29.79366359275417,-0.059663284296047246,2.77210779601664,-5.462829042504302
2.32966476654394,29.163867775633435,-0.06884364471519243,2.704377570250627,-5.121629819657087
2.3129606448890385,28.549316760633808,-0.07640958706655941,2.6395442993113702,-4.812964688081515
2.294673986060494,27.949367418473386,-0.08260483752947878,2.5774065020835715,-4.532727592510889
2.2750965256447433,27.363420685770976,-0.08763394869444126,2.5177824779373985,-4.277431630851129
2.254476662657692,26.790917318157017,-0.09166920771469808,2.4605076752274675,-4.044102052997778
2.233026240672123,26.231334196568483,-0.09485620085547071,2.4054325124989147,-3.8301900300395046
2.210926170432603,25.68418109354596,-0.09731832296644423,2.3524205572621413,-3.6335027170565595
2.1883311113117045,25.148997825571705,-0.0991604519978882,2.301346990340101,-3.4521461959916495
2.1653733841445875,24.62535173210501,-0.10047195815095333,2.2520973006746323,-3.284478671796747
2.1421662533178774,24.112835433214798,-0.1013291794726135,2.2045661679358797,-3.129071883514835
2.118806688956237,23.611064826451344,-0.10179746715034368,2.15865649957243,-2.984679136468839
2.095377698807682,23.11967729046668,-0.10193288196752906,2.1142785959463937,-2.8502087005429866
2.0719503026223456,22.63833006834144,-0.10178360660061493,2.0713494225339386,-2.72470157992249
2.0485852084403144,22.166698807938317,-0.1013911254170462,2.0297919722758193,-2.6073128612805445
2.0253342394930507,21.704476240126517,-0.10079121325481304,1.989534704348547,-2.497296004618583
2.0022415518032104,21.251370978592313,-0.10001476665684207,1.9505110481228094,-2.393989564350604
1.9793446755976434,20.807106427307662,-0.09908850469591376,1.912658963048049,-2.296805925638367
1.9566754079871422,20.37141978367817,-0.09803556148235583,1.875920546773607,-2.2052217183287515
1.9342605797491998,19.94406112701513,-0.09687598841279633,1.840241685078953,-2.118769632575956
1.9121227152694324,19.524792583337263,-0.09562718097648486,1.8055717382068421,-2.037031409744451
1.8902806015904434,19.11338755865552,-0.09430424231907239,1.7718632590256842,-1.9596318220869289
1.868749779954803,18.709630033867555,-0.09292029364301839,1.7390717391305284,-1.886233486983516
1.8475429711090485,18.313313915218572,-0.09148673979832535,1.707155379556308,-1.8165323877734543
1.8266704438762882,17.92424243499632,-0.09001349700828508,1.6760748832458772,-1.7502539946253983
1.806140335040497,17.542227597740208,-0.08850918852033424,1.6457932668072806,-1.6871498964324338
1.785958927363025,17.167089667773602,-0.08698131302290166,1.6162756894240522,-1.626994869136022
1.7661308915284655,16.798656694327875,-0.08543638988631043,1.5874892970605494,-1.5695843177759932
1.7466594969581388,16.436764070926756,-0.08388008463827021,1.559403080340462,-1.5147320394062913
1.7275467957067931,16.081254126049636,-0.08231731754734352,1.531987744677976,-1.4622682621878875
1.708793783048639,15.731975742399118,-0.08075235774095309,1.5052155914134773,-1.4120379227756117
1.6904005378435676,15.388784002368372,-0.07918890491184204,1.479060408853899,-1.3638991497998658
1.6723978333835132,15.051545578262104,-0.07735635126254423,1.4534476268527734,-1.3099774238417048
1.654812893655639,14.720132291146442,-0.07555616811027434,1.4284070437182181,-1.258797431841736
1.6376381449063553,14.39441513610181,-0.0737894731878467,1.403916043626407,-1.2101843765409601
1.6208657896983676,14.074270176374263,-0.07205709383813212,1.3799531713957196,-1.1639767231656761
1.6044878690282247,13.759578285045965,-0.07035960764137092,1.3564980575460008,-1.1200250344508087
1.5884963157087535,13.450224903275018,-0.0686973777453366,1.3335313491578846,-1.0781909215766712
1.572883000153976,13.146099813831079,-0.06707058360055274,1.3110346460068059,-1.0383460981624018
1.5576397695537625,12.847096928767684,-0.0654792477056525,1.2889904415009816,-1.00037152602936
1.5427584812958386,12.553114090174972,-0.06392325888498977,1.2673820680008563,-0.9641566428087682
1.5282310313808616,12.264052883048759,-0.06240239254959295,1.2461936461401266,-0.9295986626499666
1.5140493784795153,11.97981845939493,-0.06091632833167904,1.2254100378062192,-0.8966019423142322
1.5002055641968428,11.70031937276298,-0.059464665430690365,1.2050168024716041,-0.8650774058357823
1.4866917300364655,11.425467422470074,-0.05804693596389386,1.1850001565971329,-0.8349420217146178
1.4735001314943879,11.155177506838065,-0.05666261657591133,1.1653469358551372,-0.8061183272908505
1.4606231496574136,10.889367484821197,-0.05531113852821333,1.1460445599437232,-0.7785339955503758
1.4480533006336729,10.627958045452406,-0.05399189646083625,1.127080999784881,-0.7521214401385475
1.4357832431013993,10.370872584581576,-0.05270425599371567,1.1084447469179948,-0.7268174548215942
1.423805784226068,10.118037088420511,-0.05144756031351297,1.0901247849173588,-0.7025628840432299
1.412113884164599,9.869380023447093,-0.050221135873172895,1.0721105626775804,-0.6793023215834091
1.4007006593479265,9.624832232255354,-0.04902429731528455,1.0543919694245019,-0.6569838346436317
1.3895593847092962,9.384326834969546,-0.04785635171628321,1.0369593113216555,-0.6355587109639306
1.3786834950047455,9.147799135868912,-0.04671660223633185,1.0198032895534372,-0.614981226825273
1.36806658535392,8.915186534895994,-0.045604351249108124,1.0029149797762755,-0.5952084340115595
1.3577024111133773,8.686428443745331,-0.04451890301647972,0.9862858128381976,-0.5761999640011445
1.3475945773687972,8.461581349936008,-0.043375303458129705,0.9689063072428618,-0.5781652414709223
1.3377446628572907,8.240716445879045,-0.042276127076709066,0.9516580758611526,-0.5826810128745321
1.3281424873998058,8.023803999326152,-0.04122105081446465,0.9345371115553148,-0.5896072445083623
1.3187779585360593,7.810815179972913,-0.04020963495724374,0.9175395784728458,-0.5988086715616847
1.3096410970545507,7.6017220210292,-0.03924133444717822,0.9006618036463823,-0.610154453226627
1.300722060030085,7.396497382647944,-0.038315509243826235,0.883900269234103,-0.6235178432577604
1.2920111615792047,7.195114917069212,-0.03743143380730704,0.8672516053635496,-0.6387758744714708
1.2834988915277175,6.997549035344633,-0.0365883057708437,0.850712583545823,-0.6558090557549175
1.2751759321696563,6.8037748755143035,-0.03578525386446981,0.8342801106309425,-0.6745010802231173
1.2670331732834046,6.613768272114683,-0.03502134514641432,0.8179512232787934,-0.6947385432211229
1.259061725558279,6.427505726901408,-0.034295591593808676,0.8017230829235876,-0.7164106689168742
1.2512529325735113,6.244964380675686,-0.03360695609982343,0.7855929712131424,-0.7394090442694496
1.2435983814612201,6.0661219861068005,-0.03295435792010007,0.769558285907597,-0.763627359187417
1.236089912375562,5.890956881446499,-0.03233667760736301,0.7536165372254628,-0.7889611517129171
1.2287196268817406,5.7194479650333285,-0.03175276146934394,0.7377653446281852,-0.8153075570791014
1.2214798953708828,5.551574670486751,-0.03120142558159439,0.7220024340377185,-0.8425650594915318
1.2143633635999116,5.387316942491633,-0.030681459383372175,0.7063256354850294,-0.8706332454780307
1.2073629584494474,5.22665521307389,-0.03019162888153394,0.6907328811909869,-0.8994125576360013
1.2004718929873857,5.069570378267173,-0.029730679484219622,0.6752222040848226,-0.9288040475811185
1.19368367092115,4.916043775068946,-0.029297338483046803,0.6597917367693089,-0.9587091268660961
1.1869920905176556,4.7660571585816776,-0.028890317199513297,0.6444397109460599,-0.9890293145924631
1.1803912480667564,4.6195926792311965,-0.02850831280830516,0.6291644573189866,-1.0196659803813275
1.1738755409613741,4.476632859949628,-0.0281500098471928,0.6139644059990021,-1.0505200813002864
1.1674396704656311,4.337160573204297,-0.027814081420137176,0.5988380874386672,-1.0814918912621865
1.1610786442411505,4.201159017746708,-0.027499190097085915,0.5837841339316869,-1.1124807213165306
1.1547877787012577,4.068611694946863,-0.027203988510678113,0.5688012817191284,-1.1433846291450998
1.1485627012631643,3.939502384567678,-0.026927119646655624,0.5538883737520542,-1.1741001159489584
1.1423993525693663,3.8138151198217436,-0.02666721682115341,0.539044363169103,-1.204521808773651
1.136293988751505,3.6915341615381756,-0.026422903334162685,0.5242683175575609,-1.2345421261624396
1.1302431838128846,3.5726439712501055,-0.026192791784273885,0.5095594240778452,-1.2640509248535277
1.1242438322097892,3.4571291829935618,-0.025975483025250604,0.49491699554426705,-1.2929351250464935
1.1182931517167862,3.344974573585457,-0.025769564739991896,0.48034047756969517,-1.321078311556506
1.1123886866674653,3.236165031121608,-0.025573609601930322,0.4658294568985553,-1.3483603079543005
1.1065283116696467,3.1306855214050238,-0.02538617298779665,0.4513836710717472,-1.3746567205591234
1.1007102359031817,3.028521051979059,-0.025205790198854577,0.4370030195888257,-1.3998384489170579
1.0949330081192081,2.9296566333992367,-0.025030973140046493,0.42268757675745333,-1.423771159168219
1.0891955224723506,2.834077237330618,-0.02486020639784554,0.40843760644793803,-1.4463147164982586
1.0834970253321017,2.7417677510038985,-0.02469194264779842,0.3942535790017974,-1.467322572705108
1.0778371232367778,2.6527129275022467,-0.024524597311538488,0.3801361905777753,-1.4866411048242485
1.072215792173383,2.5668973312813215,-0.024356542370154714,0.3660863852563712,-1.5041089007939468
1.0666333883898451,2.4843052782464667,-0.024186099225826863,0.35210538026411103,-1.519555988376823
1.06109066097298,2.4049207696232706,-0.02401153048604289,0.33819469472021374,-1.532803004088662
1.0555887664568546,2.328727418760348,-0.02383103052374382,0.32435618234868163,-1.5436602998679116
1.050129285762875,2.255708369897313,-0.023642714641295855,0.3105920686342259,-1.5519269868638281
1.0447142438161423,2.18584620781807,-0.023444606634640895,0.2969049929244013,-1.557389918336064
1.039346132234065,2.1191228571937657,-0.023234624513858472,0.2832980559826043,-1.5598226176883108
1.0340279355453244,2.0555194703077397,-0.02301056408388537,0.2697748734610962,-1.558984163744924
1.0287631614735675,1.995016301758234,-0.022770080018347977,0.25633963566502477,-1.5546180544488728
1.0235558759159444,1.9375925686721374,-0.022510663960983602,0.24299717377928562,-1.5464510835510255
1.018410743369913,1.8832262949647678,-0.022229619047985788,0.22975303237174435,-1.5341922845106022
1.0133330737251725,1.8318941382932223,-0.021924030036714837,0.21661354738082594,-1.517532024530396
1.0083288765610052,1.7835711986461789,-0.02159072791256511,0.20358592781084953,-1.4961413734346394
1.0034049244043268,1.7382308081010294,-0.02122624736289978,0.1906783377991541,-1.4696719327277235
0.9985688268612094,1.695844302324705,-0.020826774751165043,0.17789997329931048,-1.437756397816439
0.9938291182168519,1.6563807761425693,-0.020388083025856183,0.16526112393665865,-1.4000102523935822
0.9891953621396647,1.6198068283062277,-0.01990544808012011,0.15277320507499761,-1.3560351736422316
0.9846782787421713,1.5860863049602578,-0.019373537985040098,0.14044873706387312,-1.3054249795539443
0.9802899017993099,1.555180057919813,-0.01878626151810282,0.1283012372008601,-1.2477752967734894
0.9760437779778042,1.5270457435718612,-0.01813655432107653,0.11634497452046406,-1.1826985855483612
0.9719552264109341,1.501637701878085,-0.017416067999532638,0.10459451846889248,-1.1098467195920199
0.9680416873215625,1.4789069730507975,-0.01661470669065473,0.09306399307273726,-1.0289439038816806
0.9643232049221588,1.4588015309140232,-0.015719922869376735,0.08176593855138396,-0.9398330728984802
0.9608231159768377,1.4412668316166126,-0.014715633176894094,0.07070970751305845,-0.8425384372571612
0.9575690566006396,1.4262467801351413,-0.013580535311785196,0.059899435804076286,-0.7373442843624087
0.9545944655875143,1.4136851736478135,-0.012285473498000007,0.04933192495528118,-0.6248833595472604
0.9519408750533933,1.403527531275266,-0.010789226798704797,0.03899540002339211,-0.5062146491087265
0.9496615105658139,1.395722865267551,-0.009031333962854958,0.028871260913264224,-0.3828499882783546
0.9478273607957279,1.3902242076875382,-0.006917794472675124,0.018943152825987762,-0.2566695480164624
0.9465393268395326,1.3869848861663385,-0.0042825007985893265,0.009224860401837676,-0.12966668419773003
0.9459654588707522,1.3859382896879815,-0.0007076554516747702,-0.00012402145960351864,-0.0035422848601689705
