x,y,v_x,v_y,omega
2.375,32.48,0.0,2.2564102564102564,-2.4897959183673475
2.374549727071858,32.01083234468794,-0.00428831360135435,2.2118531275141056,-2.3630645000813177
2.373253629805934,31.55087555514909,-0.00805546988363284,2.168687725236837,-2.24571436149086
2.3712149218384053,31.09984487348591,-0.011360796473783456,2.1268425763172636,-2.1368278560991176
2.368525125892916,30.657470029074293,-0.014256307768970924,2.086251179983848,-2.0355944548532077
2.365265505292434,30.223494241780575,-0.01678769794990741,2.046851556146806,-1.9412964581616583
2.3615083025011274,29.79767331457906,-0.018995185776822868,2.008585845772368,-1.8532968391996512
2.357317813278906,29.379774805395606,-0.02091423538718917,1.97139995597481,-1.7710288675933208
2.35275132039863,28.96957726943612,-0.022576172996394146,1.9352432436393694,-1.693987225803456
2.3478599070621264,28.566869564450435,-0.024008715922684623,1.900068232414757,-1.6217203813640462
2.3426891669986394,28.17145021237887,-0.025236427539096162,1.865830358743007,-1.553824019202948
2.3372798256135834,27.783126811667604,-0.02628110946143673,1.8324877432690567,-1.4899353716090522
2.3316682843774186,27.401715495249228,-0.027162140406802673,1.800000984524992,-1.4297283105870635
2.3258870988247318,27.02704042978899,-0.027896769618785,1.7683329722391996,-1.3729090895867304
2.319965399008484,26.65893335231407,-0.028500371488338623,1.737448717998116,-1.3192126398735298
2.313929259972279,26.297233140787462,-0.028986666951703953,1.7073152013028916,-1.2683993418846964
2.3078020287226813,25.941785415571324,-0.029367916377800646,1.6779012293270101,-1.220252204392985
2.301604613269901,25.592442169057165,-0.029655087934393105,1.6491773089030688,-1.1745743946629754
2.295355738530821,25.249061421029566,-0.029858004818746398,1.6211155294550277,-1.131187071417345
2.289072173230364,24.911506897582804,-0.029985474233229302,1.593689455752221,-1.0899274796440588
2.2827689313768444,24.579647731631518,-0.03004540056219398,1.5668740294981136,-1.050647272320744
2.2764594514086167,24.253358183251393,-0.030044884849499888,1.5406454788840616,-1.0132110292130743
2.2701557557000593,23.932517378257934,-0.029990312374855575,1.5149812353393541,-0.9774949471852448
2.263868592764098,23.6170090635837,-0.02988742987239531,1.4898598567961672,-0.9433856800777409
2.2576168076829433,23.306722675535703,-0.02965338042431731,1.4652486008038172,-0.9084177423592548
2.2514170741192943,23.001551757872086,-0.02939170113424254,1.4411410912306508,-0.8751114637941662
2.245274825438766,22.701392466694692,-0.02910590534697868,1.4175188247445214,-0.8433677099072093
2.239194795171234,22.4061447518823,-0.0287991448199911,1.3943641734687169,-0.8130943798955242
2.2331810890159183,22.115712178710297,-0.028474247135399842,1.371660332931357,-0.7842058288086634
2.227237249418604,21.830001760012788,-0.028133749029495638,1.3493912737115668,-0.7566223435051148
2.221366313528398,21.548923798143107,-0.027779926115323393,1.327541696475843,-0.7302696668037942
2.215570865247754,21.27239173604979,-0.027414819414623894,1.3060969901271782,-0.7050785648871488
2.209853082007492,21.000322016840812,-0.027040259064055674,1.2850431928155062,-0.6809844335710901
2.2042147768265847,20.732633951259146,-0.02665788551601931,1.2643669555812953,-0.6579269395466892
2.198657436153262,20.469249592538493,-0.02626916851562582,1.2440555084249239,-0.6358496931286113
2.1931822539284553,20.210093618149493,-0.025875424101580377,1.2240966286131567,-0.6146999494235078
2.1877901622636124,19.95509321798478,-0.02547782984930325,1.2044786110508094,-0.5944283351647854
2.182481859081802,19.70417798856556,-0.02507743854889295,1.1851902405607857,-0.5749885987541247
2.1772578330329226,19.457279832884105,-0.02467519048804886,1.1662207659292652,-0.5563373813098442
2.1721183859601876,19.2143328655251,-0.024271924490380493,1.1475598755850935,-0.5384340067520061
2.16706365316526,18.975273322735347,-0.023868387842268027,1.1291976747935077,-0.5212402891577638
2.1620936216930615,18.74003947713532,-0.023465245226285618,1.111124664254359,-0.5047203558011064
2.157208146833884,18.508571556788183,-0.023063086765880998,1.0933317200040784,-0.4888404844516456
2.1524069670196666,18.280811668362226,-0.02266243527428619,1.075810074528868,-0.47356895364985613
2.147689717272884,18.056703724141265,-0.022263752790310433,1.0585512990040826,-0.4588759048033529
2.143055941350072,17.836193372654773,-0.02186744647456143,1.041547286581565,-0.4447332150621873
2.138505102707425,17.619227932715155,-0.021473873931601963,1.0247902366528852,-0.43111438003241065
2.1340365944028803,17.405756330664282,-0.021083348016443293,1.0082726400220774,-0.41799440547766914
2.1296497480375174,17.19572904064467,-0.02069614117748956,0.9919872649266059,-0.4053497072396127
2.125346568287939,16.989239263463517,-0.0202865231042108,0.9745820415605904,-0.4199230963474174
2.121126857947462,16.786392376979748,-0.01990119442414377,0.9572930678086086,-0.4364660358976842
2.116985499010134,16.587164310380814,-0.019540319264689656,0.9401170902764914,-0.45486576149771407
2.112917350712373,16.391531662688934,-0.01920395023780003,0.923050982979517,-0.47501256013726817
2.108917271971211,16.199471676561526,-0.018892037773265376,0.9060917420434027,-0.4967995303979578
2.1049801419392096,16.010962213161,-0.018604438721986236,0.8892364808187379,-0.520122350092334
2.1011008788238987,15.825981728008927,-0.018340924280973656,0.8724824253915022,-0.5448790504221581
2.097274457109204,15.644509247742974,-0.018101187287548857,0.8558269104747134,-0.5709697957683545
2.093495923306758,15.466524347697927,-0.01788484892621902,0.8392673756686042,-0.5982966682421691
2.0897604103562686,15.29200713023442,-0.01769146488796504,0.8228013620790626,-0.626763456138131
2.0860631507861256,15.120938203741048,-0.017520531018158505,0.8064265092863929,-0.6562754454344804
2.082399488738189,14.9532986622368,-0.017371488486001303,0.7901405526588154,-0.6867392134857069
2.07876489095411,14.789070065501836,-0.017243728505225164,0.7739413210075275,-0.7180624240445711
2.0751549568146204,14.628234419664867,-0.017136596632774788,0.7578267345826428,-0.7501536227372287
2.071565427517902,14.470774158175438,-0.01704939666930164,0.7417948034119276,-0.7829220320945577
2.067992194478464,14.316672123088548,-0.01698139418249134,0.7258436259870134,-0.8162773452151311
2.064431307023794,14.165911546587918,-0.016931819671511122,0.7099713883047074,-0.8501295171000437
2.0608789794625273,14.018476032672133,-0.016899871388170007,0.694176363274203,-0.8843885526564736
2.0573315975948603,13.874349538925376,-0.016884717827707164,0.6784569105044531,-0.9189642903148376
2.05378572473351,13.73351635829098,-0.016885499899437214,0.6628114764897742,-0.9537661801430031
2.0502381073016696,13.59596110076188,-0.01690133278475629,0.6472385952159475,-0.9887030552694782
2.046685680073112,13.46166867489676,-0.016931307487220153,0.6317368892137716,-1.0236828953449713
2.04312557111892,13.330624269064629,-0.016974492076513435,0.616305071092259,-1.0586125806772653
2.0395551065252504,13.202813332313038,-0.01702993262510232,0.6009419455895684,-1.093397635567004
2.0359718149471324,13.078221554746559,-0.017096653833164215,0.5856464121864323,-1.1279419592507078
2.0323734320645825,12.956834847291873,-0.017173659333975116,0.5704174683343987,-1.1621475427210803
2.0287579050093476,12.83863932071398,-0.01725993166826292,0.5552542133598076,-1.1959141695424602
2.025123396833415,12.723621263734206,-0.017354431912050813,0.5401558531142315,-1.2291390986102269
2.021468291094142,12.611767120084615,-0.017456098938162468,0.5251217054533093,-1.2617167266164877
2.017791196635524,12.503063464314952,-0.017563848286774437,0.5101512066387197,-1.2935382277802538
2.014090952650826,12.397496976146751,-0.017676570615108373,0.4952439187727022,-1.3244911681790317
2.0103666341187405,12.29505441314453,-0.017793129690472233,0.48039953839131233,-1.3544590917818586
2.0066175577133905,12.195722581445455,-0.017912359884290262,0.46561790636178313,-1.383321075034374
2.0028432882982132,12.099488304256088,-0.018033063117394808,0.4508990192512563,-1.4109512465899612
1.9990436461250383,12.006338387787004,-0.018154005198559264,0.436243042359059,-1.437218268526128
1.9952187148728573,11.916259584252845,-0.018273911488876554,0.4216503246329204,-1.4619847751458204
1.9913688506760612,11.829238551515655,-0.018391461813945312,0.4071214157212844,-1.4851067652600936
1.9874946923095598,11.745261808892746,-0.0185052845336869,0.3926570854492911,-1.5064329437125206
1.9835971727186252,11.664315688585848,-0.01861394966569013,0.37825834604498104,-1.5258040078825394
1.9796775321048292,11.586386282115267,-0.018715960941889435,0.3639264774843531,-1.5430518750613609
1.9757373328066707,11.511459381060767,-0.018809746659619087,0.3496630563680281,-1.5579988470269732
1.9717784762449861,11.439520411319549,-0.018893649165949086,0.3354699887864228,-1.5704567089945667
1.9678032222398536,11.370554359991516,-0.01896591278769578,0.3213495476710188,-1.5802257615882787
1.9638142110484953,11.304545693894188,-0.019024669987142858,0.30730441516068413,-1.5870937868626724
1.9598144885241202,11.241478268597227,-0.019067925483096736,0.2933377305246632,-1.5908349531214325
1.9558075348557653,11.181335226755031,-0.019093538025045514,0.27945314416290007,-1.5912086689488654
1.9517972974219773,11.12409888441464,-0.019099199439601373,0.26565487812656213,-1.5879584053733917
1.9477882283809749,11.069750603901085,-0.01908241047470811,0.2519477934311044,-1.5808105177053937
1.943785327733468,11.01827065185864,-0.019040452834880248,0.23833746411599954,-1.5694731171954166
1.93979419274193,10.969638041093596,-0.018970356608340035,0.2248302574558338,-1.5536350699384986
1.935821074788154,10.923830355084537,-0.018868861999051353,0.2114334188209104,-1.5329652403031373
1.931872945025525,10.88082355449379,-0.018732373835508975,0.19815515823381405,-1.5071121541963521
1.9279575705757463,10.840591765872798,-0.018556906638573244,0.18500473339468462,-1.4757043416863962
1.9240836036004678,10.803107054218838,-0.01833801693550726,0.1719925204525531,-1.4383517401176062
1.9202606864588216,10.768339183426257,-0.018070717746838105,0.15913005852441137,-1.3946487131908865
1.916499577527063,10.736255372433426,-0.017749367317528634,0.14643004616922684,-1.344179488425869
1.9128123044103467,10.706820060618018,-0.017367519508342793,0.13390625683467228,-1.2865271582517666
1.9092123547180488,10.679994704533886,-0.016917715656397173,0.12157332491895333,-1.2212878497528343
1.905714920116989,10.65573764029568,-0.01639118530607902,0.10944633449252542,-1.148092247059066
1.9023372183354594,10.634004062437711,-0.015777403089440454,0.09754012129764593,-1.0666372908698907
1.8990989322564942,10.614746190386349,-0.01506341671022683,0.08586818395341765,-0.9767313732091039
1.89602282849756,10.59791371403784,-0.01423280956533721,0.07444111460381496,-0.8783561539397182
1.8931356551409644,10.583454619084495,-0.013264079545098317,0.06326455161852915,-0.7717460861330567
1.8904694785869827,10.571316464468843,-0.012128078111869828,0.05233692091149564,-0.6574807543487267
1.8880637226229702,10.561448066821246,-0.010783883450154696,0.04164781858943143,-0.5365724118364309
1.8859683782034051,10.55380125017108,-0.00917177768855882,0.031179006650252743,-0.4105104168554682
1.8842493877025948,10.548331683031293,-0.0071995604143965004,0.020912108966767217,-0.2812016846903937
1.8829991450578136,10.544996322078408,-0.004707512393044515,0.010853233441658353,-0.1507401706236449
1.8823661109491567,10.543738367932416,-0.0013213838798767077,0.0011272822344394005,-0.020994132903568885
