x,y,v_x,v_y,omega
2.375,32.48,0.0,2.5128205128205128,-4.6938775510204085
2.3738512266074223,31.90863906256755,-0.009989333848502632,2.455535464852963,-4.408786111652853
2.370567073778446,31.350197333572755,-0.0185685168382492,2.4004795698843684,-4.149385170674625
2.365450056543451,30.804178621570866,-0.025927285205185682,2.347509230132053,-3.9126481863446356
2.358762248264274,30.270118246741205,-0.03222756939634899,2.2964940292562983,-3.6959731797864426
2.350731155877031,29.747580199522993,-0.03760801657967842,2.247315076989009,-3.4971144248841726
2.3415546490826498,29.236154648958742,-0.042187694675811085,2.1998636235697067,-3.3141265195827976
2.3314051127747937,28.735455744857717,-0.046069142783807,2.1540398903522466,-3.145318336689992
2.32043295832159,28.245119668813587,-0.04934089593970373,2.1097520752488945,-2.989214911796262
2.308769603084357,27.76480289756217,-0.05207958438406288,2.066915500850374,-2.844525747870554
2.2965300069424335,27.294180648768503,-0.054351686415270904,2.025451879964141,-2.7101183373830855
2.283814838268074,26.8329454845385,-0.05621499770959473,1.9852886785576187,-2.5849959496493593
2.270712328775376,26.380806052091415,-0.057719867444299876,1.9463585601126947,-2.4682789222876673
2.257299866216511,25.93748594435037,-0.05891024176321986,1.9085988985050737,-2.359188844898695
2.243645365460942,25.502722665893717,-0.059824547415643546,1.8719513489440778,-2.257035140339707
2.2298084516445074,25.076266691897825,-0.06049644229248211,1.8363614684115053,-2.1612036417137586
2.2158414834886178,24.65788060949783,-0.06095545471525583,1.8017783785449892,-2.0711468369909927
2.2017904403119153,24.247338332477117,-0.06122752942998057,1.7681544651133716,-1.9863755122240159
2.1876956924896263,23.844424381431367,-0.06133549511166452,1.7354451091974854,-1.9064515718072483
2.1735926720035796,23.448933222586966,-0.061299465636567275,1.7036084459712375,-1.8309818526093573
2.159512457145225,23.060668659324612,-0.06113718530564513,1.6726051476144324,-1.7596127799675616
2.1454822832866456,22.679443271196735,-0.06086432650808964,1.6423982274106022,-1.692025738940016
2.1315259898419865,22.30507789585546,-0.06049474692372881,1.6129528625135154,-1.6279330550139712
2.117664412040643,21.937401149845748,-0.06004071221838859,1.5842362332231459,-1.5670744955637284
2.103915724872875,21.576248984680454,-0.05951308924046439,1.5562173769098415,-1.5092142174550283
2.0902957455067983,21.221464275013652,-0.05892151394281035,1.5288670549753776,-1.4541380978662957
2.0768181995791526,20.872896436074697,-0.05827453760193675,1.5021576314503198,-1.4016513950925527
2.063494956003234,20.530401067827256,-0.05757975436257181,1.4760629620056782,-1.3515766941757663
2.050360657888924,20.193843758629008,-0.056631533587949034,1.4505223353704237,-1.2981414504005582
2.0374460212360392,19.86309536644817,-0.05566965469800696,1.4255506401150848,-1.247425445830257
2.024753720291828,19.538027615985683,-0.05469817959947954,1.4011254508630693,-1.1992552566577261
2.01228555387476,19.218517257835792,-0.05372065880980546,1.3772254895707736,-1.1534706161877657
2.000042556137529,18.90444581309911,-0.05274019107916144,1.3538305516177846,-1.1099232594628505
1.9880250944371856,18.595699334337453,-0.05175947588034905,1.3309214376140006,-1.0684758828168603
1.9762329558494025,18.292168181615313,-0.050780859665590136,1.3084798904046109,-1.0290012056080204
1.9646654236709358,17.99374681248584,-0.04980637666890152,1.2864885368082126,-0.9913811229403999
1.9533213450871212,17.700333584880706,-0.04883778492948735,1.2649308336712024,-0.9555059395335996
1.9421991910360956,17.411830571954177,-0.0478765981229087,1.24379101786384,-0.9212736760727356
1.9312971091752555,17.128143388013548,-0.04692411371048269,1.2230540598807724,-0.8885894403908476
1.9206129707456165,16.84918102474193,-0.045981437851595135,1.202705620741959,-0.8573648567249078
1.9101444120339972,16.57485569698588,-0.045049507466834844,1.1827320119193956,-0.827517547062881
1.8998888710493727,16.3050826974404,-0.04412910979077004,1.1631201580412531,-0.7989706592782886
1.8898436199567055,16.03978025961859,-0.043220899710683644,1.143857562148437,-0.7716524373436396
1.880005793747643,15.77886942854208,-0.04232541515072789,1.1249322732994553,-0.7454958294362096
1.8703724155714796,15.522273938633752,-0.04144309072895501,1.1063328563381885,-0.7204381302085833
1.8609404191006615,15.269920098334431,-0.04057426988685303,1.0880483636559097,-0.6964206539004391
1.8517066682619931,15.021736681002697,-0.0397192156667866,1.0700683087939535,-0.6733884353243184
1.8426679746267762,14.77765482169049,-0.038878120291620674,1.0523826417469604,-0.6512899560727251
1.8338211127197677,14.537607919418125,-0.03805111368236765,1.034981725838811,-0.6300768935721112
1.825162833477433,14.301531544600412,-0.03723827103358582,1.0178563160543537,-0.6097038908556711
1.8166898760600723,14.069363351301366,-0.03643961955215894,1.0009975387199501,-0.5901283451453535
1.8083989781995093,13.841042994018565,-0.03565514445273747,0.9843968724348413,-0.571310213527498
1.8002936850986722,13.616628736928238,-0.03482566511975848,0.9670314500897381,-0.5736565843036198
1.7923754692189655,13.39619348558153,-0.03402838600812499,0.9497968224903246,-0.5785133542411707
1.7846368966593524,13.17970761410115,-0.0332635492928591,0.9326890164694857,-0.5857433786304845
1.7770704943425923,12.967142391110954,-0.03253125346157652,0.9157042269235292,-0.5952140697878039
1.7696687816011596,12.758469942013772,-0.03183146602914139,0.8988388087041311,-0.6067970683606608
1.7624242989571304,12.553663213063647,-0.031164035223286608,0.8820892691230449,-0.620367928715074
1.7553296343237337,12.35269593709545,-0.030528700719292957,0.8654522610351777,-0.6358058170134018
1.7483774468390492,12.155542600782422,-0.029925103495355727,0.8489245764694289,-0.6529932206594635
1.741560488526539,11.962178413298705,-0.029352794874296664,0.8325031407802689,-0.6718156678455738
1.7348716239626436,11.77257927626988,-0.028811244811750757,0.8161850072964721,-0.6921614559848828
1.7283038481184225,11.586721754899411,-0.02829984948582427,0.7999673524467208,-0.71392138785224
1.7218503025301322,11.40458305016336,-0.027817938238439876,0.7838474713450154,-0.7369885142879553
1.7155042899425883,11.226140971969155,-0.02736477991411641,0.7678227738219919,-0.7612578823414873
1.7092592875591248,11.051373913177116,-0.026939588637737953,0.751890780891395,-0.7866262877463188
1.70310895902286,10.88026082438553,-0.026541529068914004,0.7360491216441232,-0.8129920306230632
1.6970471652457544,10.712781189381424,-0.0261697211667865,0.7202955305654912,-0.8402546733050765
1.6910679741945835,10.548915001159802,-0.025823244495568054,0.7046278452746848,-0.8683147991693341
1.6851656697363615,10.388642738413996,-0.025501142097667604,0.6890440046888546,-0.8970737713347698
1.6793347596399661,10.23194534239871,-0.02520242395794416,0.6735420476179721,-0.9264334900602956
1.673569982825672,10.078804194065587,-0.024926070079395277,0.6581201118004867,-0.9562961476348331
1.6678663159499902,9.929201091368213,-0.02467103318740356,0.6427764333940592,-0.9865639795013361
1.6622189794096414,9.783118226629767,-0.02443624107649949,0.6275093469402558,-1.0171390102952955
1.6566234428456457,9.640538163861514,-0.02422059861041946,0.6123172858271566,-1.0479227934048374
1.6510754302264015,9.501443815914254,-0.024022989383008835,0.5971987832794471,-1.0788161425734417
1.6455709245872718,9.36581842133726,-0.023842277044204583,0.582152473911819,-1.109718853966597
1.640106172503621,9.23364552081022,-0.02367730629189034,0.5671770958885274,-1.1405294170094697
1.634677688374471,9.104908933002957,-0.02352690352680591,0.552271493739858,-1.1711447121729324
1.6292822585950435,8.979592729704923,-0.023389877163866025,0.5374346218952115,-1.201459693739225
1.623916945698447,8.857681210051666,-0.02326501758914751,0.5226655490026663,-1.231367055415376
1.618579092549746,8.739158873657967,-0.023151096747382326,0.5079634631164441,-1.260756876481849
1.6132663266796992,8.624010392447186,-0.023046867339981514,0.49332767784688203,-1.2895162459657517
1.6079765648506426,8.512220580942802,-0.022951061608338943,0.4787576395825487,-1.317528862113112
1.6027080179534794,8.40377436476101,-0.02286238967134091,0.46425293591131245,-1.344674604205168
1.5974591963426277,8.298656747011734,-0.02277953737954292,0.4498133053867362,-1.3708290735229323
1.5922289157252356,8.196852772279286,-0.02270116364125758,0.43543864880846034,-1.3958631000187274
1.5870163037322058,8.098347487812102,-0.02262589716769718,0.42112904221051817,-1.419642211012778
1.5818208073117754,8.003125901503182,-0.022552332575175464,0.40688475178008365,-1.4420260580125366
1.5766422011018497,7.911172936187938,-0.022479025772004523,0.3927062509611701,-1.4628677975751248
1.571480596955292,7.822473379723569,-0.022404488545886912,0.3785942400333382,-1.4820134220331016
1.5663364548133059,7.737011830242885,-0.02232718225399345,0.364549668494336,-1.4993010359306134
1.5612105951463517,7.6547726358950605,-0.022245510502129133,0.3505737606171819,-1.5145600742435623
1.556104213210307,7.575739828295635,-0.022157810680870388,0.3366680445952234,-1.5276104589892756
1.551018895398486,7.4998970488081405,-0.02206234420452942,0.32283438573082485,-1.53826169182089
1.5459566380086684,7.427227466670637,-0.021957285272142947,0.3090750241605233,-1.5463118818698853
1.5409198687896484,7.357713687864134,-0.021840707936727384,0.29539261763515995,-1.5515467107654672
1.5359114716857891,7.2913376535002286,-0.021710571227268407,0.2817902898770585,-1.5537383408821002
1.5309348152631088,7.228080526389231,-0.02156470201342847,0.2682716850011698,-1.552644279112034
1.5259937853801526,7.167922564349546,-0.021400775229668854,0.25484102838738787,-1.5480062177914269
1.5210928227667613,7.1108429787534675,-0.02121629097373507,0.24150319418721372,-1.539548888221985
1.5162369663021718,7.056819776804865,-0.021008547848782266,0.2282637792788894,-1.5269789825463624
1.5114319029536187,7.005829586158999,-0.02077461170385214,0.215129182859065,-1.5099842294809023
1.5066840255682883,6.957847460798863,-0.020511278603369303,0.20210668983778085,-1.4882327528073205
1.5020005000379064,6.912846667690637,-0.020215030356471615,0.18920455458158852,-1.4613729046373076
1.497389343829376,6.870798454825746,-0.01988198015248992,0.17643207902617566,-1.4290338568975391
1.492859518582753,6.831671803075412,-0.019507804600755303,0.16379967532454937,-1.3908273662285686
1.4884210405599945,6.795433167210156,-0.01908765646670818,0.151318897416818,-1.346351315705212
1.4840851144141913,6.762046216001714,-0.018616049148972323,0.13900241743919667,-1.2951959019193622
1.479864298415436,6.731471588245437,-0.018086698666291617,0.12686391087625812,-1.2369537007236469
1.475772713528492,6.703666691706033,-0.01749230035061322,0.1149177981620335,-1.1712353264688191
1.4718263155779678,6.678585586310369,-0.01682420356698714,0.10317877049592862,-1.0976929880196715
1.4680432607343386,6.656179011833061,-0.016071925508049624,0.09166100756762358,-1.016054852224754
1.4644444121754323,6.63639464257745,-0.015222409786785851,0.0803769859594225,-0.9261734764286332
1.461054063835273,6.619177671403271,-0.014258880127643966,0.06933580685952435,-0.8280909972809536
1.457901001671592,6.6044718272779335,-0.013159051730451536,0.05854109857820701,-0.7221208915802608
1.4550200947253367,6.59222087990366,-0.011892313019594813,0.047988878589372924,-0.6089386535967221
1.4524547336319298,6.582370517043312,-0.010415174749162284,0.03766645063104215,-0.4896590543083155
1.4502606999838652,6.574870086219541,-0.008663378712268879,0.02755468696697519,-0.3658559812865917
1.448512809531584,6.56967286081494,-0.006535668698870994,0.017638577420852074,-0.23946148127007652
1.447318729465123,6.5667313229111315,-0.0038476362268758096,0.007940013047039528,-0.11248414564342038
