x,y,v_x,v_y,omega
2.375,32.48,0.0,3.230769230769231,-4.081632653061225
2.374001205563249,31.84172655436318,-0.009987944367511992,3.1519652255989223,-3.808743692885611
2.3711591645629038,31.218877477221767,-0.01843246563593797,3.076525545815234,-3.563230302413472
2.366759680266979,30.610802734107338,-0.025562377323313408,3.0042218853290614,-3.3415420949901775
2.3610464668839537,30.01689582417451,-0.031569756506935456,2.9348472139991975,-3.140672080268793
2.354227849075694,29.436589786683328,-0.03661642157566014,2.8682131609126444,-2.9580621783877628
2.3464822911972725,28.86935368961363,-0.04083915720855889,2.804147809784327,-2.791527035032476
2.3379629803289803,28.31468952599795,-0.044353951474360775,2.7424938263724936,-2.639192235538781
2.328801640295352,27.772129457741634,-0.04725944886192024,2.683106856190644,-2.499443924744543
2.31911171767912,27.241233357682532,-0.04963977730039937,2.625854144400391,-2.3708875181135873
2.3089910526862525,26.721586609246756,-0.05156687262828069,2.5706133399573483,-2.2523137015215178
2.2985241256657765,26.212798129871008,-0.05310239757647894,2.5172714538001526,-2.1426703063279424
2.2877839527043253,25.71449858981253,-0.054299332038029634,2.465723946784614,-2.0410389446407593
2.2768336899322157,25.22633880236993,-0.05520329568306853,2.41587392764137,-1.9466155198959447
2.2657279951908973,24.747988265124427,-0.055853651730114175,2.3676314448136893,-1.8586939067415407
2.2545141869097898,24.27913383475739,-0.056284431080962295,2.3209128588567007,-1.7766522340411013
2.243233232956291,23.819478520438793,-0.056525108454024815,2.2756402843292323,-1.6999413147520865
2.2319205964959767,23.36874038281418,-0.05660125614911987,2.231741091916904,-1.6280748533454283
2.2206069612513932,22.926651527323607,-0.05653509629671085,2.1891474629888124,-1.5606211304889306
2.209318854759687,22.492957182026288,-0.056345968620350975,2.1477959899844183,-1.4971959198521707
2.1980791851308132,22.067414851326983,-0.056050727668388714,2.1076273170086073,-1.437456436112208
2.1869077042647627,21.64979353804366,-0.05566408099211924,2.0685858158246284,-1.3810961488621898
2.175821408391544,21.239873027150175,-0.055198877740063844,2.0306192931102234,-1.327840325939958
2.1648348850669046,20.837443225298372,-0.05466635550633052,1.9936787254078003,-1.2774421930943334
2.1539606143222643,20.442303550890045,-0.054076351940074804,1.957718018675493,-1.2296796159823198
2.143209230474871,20.05426237004764,-0.053437486533858186,1.9226937897485619,-1.1843522260969577
2.132589750110042,19.67313647433651,-0.05275731711443301,1.888565167362754,-1.1412789250384006
2.1221097709162975,19.298750596531903,-0.052042474823012164,1.8552936106833042,-1.1002957120954444
2.1117756453576195,18.930936961110213,-0.051298780763765664,1.822842743533587,-1.0612537888273117
2.101592632581704,18.569534866483572,-0.05053134699538958,1.791178202732796,-1.0240179015665172
2.091565031469961,18.214390296296493,-0.049744664122040975,1.7602674991380045,-0.9884648887762455
2.081696297318622,17.865355557367984,-0.04894267739134587,1.7300798901470824,-0.9544824052097219
2.0719891442878753,17.522288942097376,-0.04812885291612344,1.7005862625589834,-0.9219677990122039
2.06244563545698,17.18505441336048,-0.047306235392831415,1.6717590248099963,-0.8908271214224378
2.053067262069166,16.853521310108352,-0.046477498485305746,1.6435720077112712,-0.8609742516868062
2.043855013333592,16.527564072046577,-0.045644988870432494,1.6160003729064785,-0.8323301222914693
2.0348094379668034,16.207061981920862,-0.04481076479745785,1.589020528350648,-0.8048220317237326
2.025930698498037,15.891898924067434,-0.04397662989020389,1.5626100501836453,-0.7783830337578148
2.0172186192272368,15.581963158005504,-0.04314416281780108,1.536747610435653,-0.7529513937749286
2.0086727286082953,15.277147105956082,-0.042314743371610876,1.5114129100585736,-0.7284701039167013
2.0002922967300085,14.977347153267484,-0.04148957541125863,1.486586616827406,-0.7048864499705161
1.9920852722391793,14.682464732765034,-0.040580669497032984,1.462237588197079,-0.679614563527791
1.9840584198264135,14.392404796827723,-0.03968785463062418,1.438361771176026,-0.6554933757595474
1.9762084939516091,14.107074384949744,-0.038811404117419686,1.414942347603747,-0.6324569102243885
1.9685322034331536,13.82638382382667,-0.0379515010671356,1.3919632636269705,-0.6104436897367502
1.9610262282864839,13.550246578858179,-0.0371082503995617,1.3694091860579651,-0.5893963808505643
1.9536872343069942,13.27857911408283,-0.036281689395334674,1.347265461695506,-0.5692614701755196
1.9465118856704673,13.011300759975786,-0.035471796969935125,1.3255180793749535,-0.5499889693475433
1.9394968557908359,12.748333588584806,-0.0346785018263794,1.3041536345348488,-0.5315321458245447
1.932638836645958,12.489602295520697,-0.033901689622399714,1.2831592961062528,-0.5138472769860111
1.9259345467566336,12.23503408835527,-0.033141209270844345,1.2625227755480226,-0.4968934252861458
1.9193807379818273,11.984558581013818,-0.03239687847721791,1.2422322978665106,-0.4806322324495684
1.9129742012735649,11.73810769377997,-0.031668488605406934,1.22227657447199,-0.4650277309101757
1.906711771517881,11.495615558559109,-0.030955808951432292,1.2026447777365994,-0.45004617088106735
1.900590331573207,11.25701842907246,-0.03025859049530866,1.1833265171299059,-0.4356558616094902
1.8946068156044182,11.022254595677627,-0.02957656919257729,1.1643118168184339,-0.42182702551814993
1.8887582117991961,10.791264304533303,-0.02890946885964428,1.1455910946248085,-0.40853166406525243
1.8830415645431757,10.563989680845761,-0.028257003700558614,1.1271551422506054,-0.39574343427223185
1.8774539761214022,10.340374655953234,-0.027618880517178562,1.1089951066746837,-0.38343753497202115
1.8719926080057148,10.12036489802119,-0.026994800639695272,1.0911024726457679,-0.3715906019234131
1.8666546817807337,9.903907746137172,-0.02638446161011667,1.073469046194421,-0.36018061101985743
1.8614374797549735,9.690952147608193,-0.02578755864748378,1.0560869390953591,-0.34918678889508464
1.8563383452982025,9.48144859827702,-0.02520378592022675,1.0389485542163683,-0.3385895302942374
1.851354682941369,9.275349085685889,-0.02463283764810997,1.0220465716949334,-0.32837032163860974
1.8464839582711965,9.072607034927582,-0.02407440905361321,1.0053739358881273,-0.3185116702654104
1.8417236976478049,8.873177257034232,-0.023528197180304068,0.9889238430453703,-0.3089970388718573
1.8370760578524112,8.677192388609107,-0.022948200773631095,0.9709248412058703,-0.33496307515186996
1.8325405610715892,8.484796255484593,-0.02240676703458907,0.9530364900392705,-0.3625637969849549
1.8281095752025325,8.295967024733184,-0.021903091655979066,0.9352558174748129,-0.3916914660355043
1.8237756346406937,8.110683446323797,-0.02143631396240846,0.9175799666190594,-0.4222407520604898
1.8195314509659946,7.928924830503828,-0.02100552278458347,0.9000061915806231,-0.4541084993092075
1.815369922505987,7.750671025977823,-0.020609761815492237,0.8825318536794333,-0.48719349795331335
1.8112841428760023,7.575902398806875,-0.020248034484353257,0.8651544180300332,-0.5213962596037417
1.8072674085894824,7.404599811954778,-0.019919308380846473,0.847871450490926,-0.5566187959767305
1.8033132258255016,7.236744605408234,-0.019622519258960816,0.8306806149745317,-0.5927643997698512
1.79941531643493,7.072318576799287,-0.01935657464675608,0.8135796711149285,-0.6297374268004887
1.7955676232617122,6.911303962458469,-0.01912035708542361,0.7965664722932595,-0.6674430784433641
1.7917643148513482,6.753683418826789,-0.01891272701821385,0.7796389640235206,-0.7057871833801028
1.7879997896148216,6.5994400041539905,-0.01873252534705431,0.762795182704458,-0.744675977642084
1.784268679512918,6.4485571604088925,-0.018578575671983167,0.7460332547465272,-0.7840158818873506
1.780565853323135,6.301018695325602,-0.018449686225845367,0.7293513960863595,-0.8237132748025774
1.7768864195491492,6.156808764506469,-0.018344651514012128,0.7127479121049956,-0.8636742614612883
1.7732257290311315,6.015911853498935,-0.018262253666162753,0.6962211979703478,-0.9038044353988339
1.7695793773140776,5.878312759758998,-0.01820126350437857,0.6797697394290177,-0.9440086330821688
1.7659432068307486,5.7439965744083175,-0.018160441328910235,0.6633921140778025,-0.984190679357153
1.762313308955862,5.6129486636854296,-0.018138537419955483,0.6470869931510765,-1.0242531223467934
1.758686025988808,5.485154649983638,-0.018134292250585955,0.6308531438668423,-1.064096956149294
1.7550579531234947,5.36060039235878,-0.018146436402545995,0.6146894323817362,-1.1036213295436759
1.7514259404659436,5.239271966379228,-0.018173690172965707,0.5985948274138001,-1.1427232387516904
1.7477870951630436,5.121155643177691,-0.01821476285603195,0.5825684046015653,-1.1812972021264196
1.744138783709512,5.006237867549622,-0.018268351679285182,0.5666093516791302,-1.2192349144390842
1.7404786345046444,4.894505234925742,-0.018333140369390002,0.5507169745596842,-1.2564248782150944
1.7368045407360166,4.785944467026315,-0.018407797316887423,0.5348907044345907,-1.2927520093276699
1.7331146636739787,4.680542385981656,-0.018490973303491483,0.5191301060119854,-1.328097213792435
1.7294074364687453,4.578285886676639,-0.018581298748843643,0.5034348870381995,-1.3623369324204275
1.7256815685512437,4.479161907046063,-0.01867738042617291,0.48780490926754966,-1.3953426496827093
1.7219360507498365,4.383157396012155,-0.018777797587897403,0.4722402010715174,-1.4269803628225637
1.7181701612477775,4.290259278714252,-0.01888109743269168,0.45674097190749735,-1.4571100069301344
1.7143834725210332,4.200454418633452,-0.018985789834753027,0.441307628900504,-1.4855848313837745
1.7105758594131866,4.113729576160516,-0.019090341243712006,0.42594079582884353,-1.5122507227848299
1.7067475085238573,4.0300713630929295,-0.01919316764958105,0.4106413348470157,-1.5369454693020788
1.702898929109801,3.949466192475626,-0.019292626490984024,0.3954103713260118,-1.5594979612494584
1.6990309657240799,3.8719002231187893,-0.019387007366224424,0.380249322242337,-1.5797273228211315
1.6951448128489628,3.7973592980344115,-0.01947452138494829,0.36515992860145624,-1.5974419703117544
1.6912420318132244,3.725828875930585,-0.01955328897243603,0.3501442924368095,-1.6124385930183665
1.687324570325204,3.6572939547890826,-0.01962132590776671,0.3352049189782053,-1.6245010545891185
1.6833947850004722,3.5917389864285916,-0.01967652733955046,0.32034476462670664,-1.6333992151963175
1.6794554673189104,3.529147780826296,-0.019716649476067924,0.30556729139624234,-1.6388876790673192
1.6755098735126488,3.4695033988398976,-0.01973928858654941,0.2908765284677286,-1.6407044783363445
1.671561758966917,3.41278803185093,-0.01974185687076773,0.27627714142195176,-1.6385697139486657
1.6676154178153204,3.3589828667557526,-0.01972155464519802,0.2617745095298309,-1.6321841890127091
1.663675728536832,3.3080679346911417,-0.019675338139686107,0.24737481111628062,-1.6212280918321504
1.6597482065255953,3.260021941942089,-0.01959988197268002,0.23308511637424667,-1.6053598181877813
1.655839064825078,3.214822081711432,-0.019491535032494782,0.21891348593232365,-1.5842150701360336
1.6519552845252965,3.172443825944523,-0.019346267965319974,0.20486907173677404,-1.5574064387073678
1.6481046967648982,3.132860697366308,-0.01915960963866232,0.19096221404537764,-1.5245237805942398
1.6442960789397736,3.0960440235584166,-0.018926568612583936,0.17720452403353937,-1.4851358486398647
1.640539268730794,3.061962677659256,-0.018641533477211394,0.16360893495808157,-1.438793852565789
1.6368453011484432,3.0305828146590095,-0.01829814234629762,0.15018969504437152,-1.3850379359487166
1.6332265763232598,3.0018676190441447,-0.01788910590553711,0.1369622611042853,-1.3234079886611338
1.6296970698655846,2.9757770897011646,-0.017405958671212987,0.12394303232551857,-1.2534607983412795
1.6262726042948865,2.952267902594418,-0.016838697035769252,0.11114883874194505,-1.1747962807138055
1.6229712109596641,2.9312934115059015,-0.016175236316453498,0.0985960721432248,-1.0870963313352613
1.6198136297020975,2.912803871178067,-0.015400576259214078,0.08629933113512707,-0.9901804058907295
1.6168240224982604,2.8967469901338276,-0.0144954957791576,0.0742694793072514,-0.8840814752495397
1.6140310242446043,2.883068926430134,-0.013434486757401628,0.06251115772967239,-0.7691428214404957
1.6114693310730992,2.8717157921058813,-0.01218244495764972,0.05102018551285929,-0.6461272585399472
1.6091821633258174,2.8626355598129507,-0.010689232515167908,0.03978213741645753,-0.5163121468406494
1.6072252332969454,2.8557798451186756,-0.008880067773554472,0.028775009526289884,-0.3815157309146227
1.6056737004787978,2.85110412569869,-0.00663526040792143,0.017982184673554058,-0.24397451530952058
1.604637174406516,2.8485624717351783,-0.0037300003148968363,0.007434354961552302,-0.10599538850956158
