x,y,v_x,v_y,omega
2.375,32.48,0.0,3.128205128205128,-2.7346938775510203
2.374129961066923,31.770084006484232,-0.007565555939799672,3.044977424105854,-2.5325526924448485
2.371668239634042,31.078859730595976,-0.013840717389598614,2.965668453183331,-2.3529318382469984
2.367887287564019,30.405458887316534,-0.019037126697561045,2.889991053594452,-2.19260753807617
2.36301518870727,29.749075993805718,-0.023328950317643895,2.8176862812822048,-2.0488978804160696
2.3572434445374872,29.108962287092456,-0.02686012941960038,2.7485198640504955,-1.9195599095506677
2.3507332678220982,28.484420393504706,-0.02975010288812959,2.6822792106255795,-1.8027083453891233
2.343620695592708,27.874799634373613,-0.0320983512804835,2.6187708687752536,-1.6967509671914538
2.336020762367308,27.27949187414771,-0.033988024592560194,2.557818350580426,-1.6003369296538503
2.328030921375518,26.697927833850365,-0.03548885359691466,2.4992602607008205,-1.5123151839923632
2.3197338609804863,26.129573806040096,-0.03665949766423024,2.442948676779778,-1.43170084537976
2.3111998323559697,25.57392871796761,-0.03754944689678355,2.3887477412418443,-1.3576478469054363
2.302488580420594,25.030521498100477,-0.03820056993257259,2.3365324315158524,-1.2894265952662036
2.293650951331601,24.498908708072264,-0.03864837866736548,2.286187481772956,-1.2264056274573703
2.284730235222235,23.97867240775423,-0.03892306576190247,2.2376064340360187,-1.1680364843769722
2.2757632913782944,23.4694182258049,-0.03905035896801745,2.1906908003059877,-1.113841183556494
2.2667814939746593,22.970773611924795,-0.03905222715054892,2.1453493203905705,-1.0634018016702338
2.2578115292901906,22.482386250283252,-0.0389474657578757,2.10149730257936,-1.0163517772480888
2.248876069576882,22.003922616310525,-0.038752183923064246,2.059056036313906,-0.9723686219476144
2.2399943441607135,21.535066661355067,-0.03848021100014232,2.0179522676465806,-0.9311677899309542
2.231182624653998,21.075518611666936,-0.0381434368843431,1.9781177296415513,-0.8924975031770457
2.2224546381739096,20.62499386984303,-0.037752097725119574,1.9394887210010674,-0.8561343688428714
2.213821920042745,20.183222008306288,-0.03731501645892248,1.9020057271445543,-0.8218796552798002
2.2052941154778636,19.74994584562713,-0.03683980584439117,1.8656130787611471,-0.789556117704245
2.1968792381732616,19.32492059756415,-0.03633304028258439,1.8302586435256225,-0.7590052841180234
2.1885838923594085,18.907913095626682,-0.03580040157700779,1.795893547234976,-0.7300851278800152
2.1804134638472776,18.498701066767513,-0.0352468028763022,1.7624719211056499,-0.7026680661296498
2.172372284671701,18.097072468516227,-0.03467649430262667,1.729950672383792,-0.676639233665504
2.164463775212748,17.702824874478033,-0.03409315316653092,1.698289275774422,-0.6518949903681336
2.156690567063208,17.315764905661542,-0.03349996117729147,1.667449583499414,-0.6283416272026462
2.149054609402519,16.93570770357261,-0.032899670654789,1.6373956520565163,-0.6058942415419898
2.141557261214153,16.562476441428572,-0.03229466141795876,1.6080935839785884,-0.5844757572535048
2.1341993713296024,16.195901870215778,-0.03168698975204514,1.5795113830891985,-0.5640160688778997
2.1269813479854998,15.835821896639484,-0.031078430631455472,1.551618821922054,-0.5444512924525905
2.1199032193312393,15.482081190304509,-0.030470514188203564,1.5243873201211915,-0.5257231082116451
2.1129646861146116,15.13453081772208,-0.02986455726073251,1.4977898327695038,-0.5077781826301486
2.10617742792559,14.793028699310135,-0.02915507916554165,1.4717938055952466,-0.4875550494684023
2.0995517852320598,14.457438433771603,-0.028459205126027134,1.4463824164789498,-0.46836816123042874
2.0930845891630625,14.127628206910202,-0.02777728243047056,1.4215325997071424,-0.4501510211239806
2.0867726033808855,13.803471374534368,-0.027109550458021926,1.3972224644305629,-0.43284220700830356
2.0806125470859955,13.484846200828283,-0.026456156454067892,1.3734312199701713,-0.41638492341308664
2.074601114637817,13.171635613254061,-0.025817169182267893,1.350139106762193,-0.4007265983153613
2.0687349922464167,12.863726972744711,-0.02519259074294992,1.327327332449534,-0.38581851969442144
2.063010872128245,12.56101185805531,-0.02458236680637131,1.3049780126756978,-0.37161550749409206
2.0574254644659655,12.26338586323682,-0.023986395474319435,1.283074116180728,-0.3580756171498005
2.051975507466745,11.970748407284741,-0.02340453495368352,1.2615994138373552,-0.3451598712965638
2.0466577757740527,11.683002555093942,-0.02283661020016304,1.2405384313000172,-0.3328320166730573
2.041469087454155,11.400054848922863,-0.02228241866851448,1.21987640497024,-0.321058303584746
2.0364063097492577,11.1218151496352,-0.021741735287110438,1.1995992410094465,-0.3098072855927336
2.0314663637639994,10.848196487046291,-0.021214316758618162,1.1796934771549756,-0.29904963736057516
2.0266462282301445,10.579114918754982,-0.02069990527489925,1.160146247117271,-0.28875798882396064
2.0219429424754494,10.31448939689054,-0.02019823172245193,1.1409452473561343,-0.2789067740523153
2.017353608706241,10.05424164224862,-0.019709018444578567,1.1220787060518669,-0.26947209335076683
2.012875393699076,9.798296025330778,-0.019231981617723735,1.1035353541032817,-0.2604315873088241
2.0085055299844705,9.546579453838998,-0.01876683329188942,1.0853043979991448,-0.2517643216412935
2.0042413165949733,9.299021266210477,-0.018313283138521593,1.0673754944227634,-0.243450681789819
2.0000801194405256,9.055553130808804,-0.017871039943630204,1.0497387264613454,-0.23547227636204196
1.99601937136592,8.816108950415959,-0.0174398128790282,1.0323845813025265,-0.22781184858151943
1.9920565719380916,8.580624771695494,-0.01701931258034878,1.015303929310227,-0.2204531950067669
1.9881892870048157,8.349038699321017,-0.016609252056833022,0.9984880043808608,-0.21338109085343887
1.9844184074331264,8.121383097983816,-0.0161810050882919,0.9811259202904543,-0.2226512089173069
1.980743300159451,7.897706018648147,-0.015776449465408102,0.9638921608892864,-0.23426494223897043
1.977158447650175,7.6779783875741785,-0.015396181050035217,0.9467828919278405,-0.24809534075097192
1.9736582132522777,7.462171994958073,-0.01504063980124406,0.9297944351687418,-0.2640195754354072
1.9702368755172357,7.250259459904072,-0.01471012311216528,0.9129232609529944,-0.28191864519497123
1.966888659579606,7.042214197043748,-0.0144047980846155,0.8961659813106989,-0.30167709562108413
1.9636077658253543,6.838010384680601,-0.014124712821919544,0.8795193435862397,-0.3231827484817096
1.9603883960672586,6.637622934344801,-0.013869806813696333,0.862980224551147,-0.34632644080245445
1.9572247774284557,6.441027461648616,-0.013639920480241083,0.8465456249809044,-0.371001772457654
1.9541111841203054,6.248200258338198,-0.013434803938458724,0.8302126646749067,-0.39710486122366384
1.9510419572870885,6.059118265441899,-0.013254125046034392,0.813978577901612,-0.4245341042746901
1.948011523077598,5.873759047419039,-0.013097476775622044,0.7978407092537007,-0.45318994512229965
1.9450144090922827,5.692100767216271,-0.01296438396625041,0.7817965099007903,-0.4829746450132931
1.9420452593442563,5.514122162141234,-0.01285430949484824,0.7658435342299791,-0.5137920578068427
1.9390988478630735,5.339802520465053,-0.012766659906741685,0.7499794368672421,-0.545547407350562
1.936170091061682,5.169121658666636,-0.012700790540141227,0.734201970075518,-0.5781470663662704
1.933254058979328,5.002059899232204,-0.01265601017598029,0.7185089815282287,-0.6114983358393287
1.9303459855063798,4.838598048923554,-0.01263158524096013,0.7028984124600189,-0.6455092238801593
1.927441277691019,4.6787173774276845,-0.012626743588263512,0.687368296199727,-0.6800882229924295
1.9245355242225033,4.5223995962989,-0.012640677877090887,0.6719167570940516,-0.7151440846387465
1.9216245031812127,4.36962683810216,-0.012672548568914338,0.6565420098341203,-0.7505855899408986
1.9187041891419507,4.220381635663092,-0.01272148655510302,0.6412423592012509,-0.7863213152868229
1.9157707597139728,4.074646901325885,-0.012786595427313675,0.6260162002527135,-0.8222593915396235
1.9128206015989786,3.932405906114891,-0.012866953398724068,0.6108620189733072,-0.8583072554540346
1.909850316246836,3.7936422586891787,-0.012961614880776063,0.5957783934241866,-0.8943713918014706
1.906856725188144,3.658339883971326,-0.013069611716545568,0.5807639954266938,-0.9303570645848867
1.9038368751229073,3.5264830013222515,-0.013189954068121863,0.5658175928261157,-0.9661680355876122
1.9007880428456614,3.3980561021225775,-0.013321630951407402,0.5509380523884376,-1.0017062683445224
1.897707740089389,3.273043926607773,-0.013463610407483886,0.5361243433924724,-1.0368716154477395
1.8945937183735955,3.151431439788741,-0.013614839295067535,0.5213755419904121,-1.0715614869008434
1.8914439739460573,3.0332038062713025,-0.013774242683524522,0.5066908364221081,-1.105670497013748
1.8882567529131111,2.918346363766773,-0.013940722820355973,0.49206953318249547,-1.139090087083641
1.885030556660067,2.8068445950611327,-0.014113157640899182,0.47751106425785284,-1.171708120834791
1.881764147671534,2.698684098181463,-0.014290398781123996,0.4630149955653625,-1.2034084492915476
1.8784565558713333,2.5938505544649537,-0.01447126904671116,0.4485810367521123,-1.2340704414356332
1.8751070856134227,2.4923296941969717,-0.01465455928294571,0.43420905253467634,-1.2635684766541146
1.8717153234691628,2.394107259439725,-0.014839024580183628,0.41989907578920466,-1.291771394624409
1.8682811469725065,2.2991689636209394,-0.015023379738566734,0.40565132263501535,-1.3185418979181966
1.8648047345037209,2.2075004473917765,-0.015206293903046892,0.39146620979249996,-1.3437359022547612
1.8612865765143534,2.1190872301936388,-0.015386384265366914,0.37734437453912917,-1.3672018290237045
1.8577274883218295,2.033914656893529,-0.015562208713100073,0.36328669763574345,-1.3887798344695703
1.8541286247318465,1.951967838755774,-0.015732257286751566,0.34929432964909773,-1.4083009698506501
1.850491496781242,1.8732315879132742,-0.01589494228372303,0.3353687211552403,-1.4255862670467596
1.8468179909340965,1.7976903443828398,-0.0160485868218904,0.32151165737028964,-1.440445744638098
1.8431103911104496,1.7253280945362306,-0.016191411644602926,0.30772529781760893,-1.4526773306194347
1.8393714039814903,1.6561282797919397,-0.016321519911564067,0.2940122216979657,-1.4620656999607606
1.835604188029146,1.5900736941342863,-0.016436879674040287,0.28037547967293486,-1.46838102863425
1.8318123869440432,1.5271463689014482,-0.016535303674679532,0.2668186527865132,-1.471377671172035
1.828000168027266,1.4673274431217003,-0.01661442603642676,0.25334591921128086,-1.4707927772950624
1.8241722663732545,1.4105970175343323,-0.016671675302804924,0.23996212937452618,-1.4663448761308961
1.820334035751313,1.356933990336735,-0.016704243148858593,0.22667288973501956,-1.4577324761935275
1.8164915072836039,1.306315872698388,-0.016709047874699325,0.2134846549462711,-1.4446327588514671
1.8126514572575294,1.2587185822506939,-0.01668269148247106,0.20040482720760433,-1.4267004872247255
1.8088214857415437,1.214116213217192,-0.016621408656534314,0.18744186004022578,-1.4035673183516477
1.8050101081475867,1.1724807827766242,-0.016521005203961162,0.17460536118210532,-1.3748418043475517
1.8012268625871397,1.1337819549368362,-0.01637678227818538,0.16190618525082828,-1.340110513039906
1.797482436947003,1.0979867460732926,-0.01618344067952603,0.14935650051912852,-1.2989409112955237
1.7937888213114461,1.0650592209923921,-0.015934956151404896,0.13696980453217367,-1.2508869635717128
1.7901594940965646,1.0349601958320847,-0.01562441093451951,0.1247608490357113,-1.1954988398944406
1.7866096547467483,1.0076469755362751,-0.015243757324753094,0.11274541440609691,-1.1323387383183876
1.7831565232619495,0.9830731704825695,-0.01478347297784621,0.10093984693047758,-1.0610056233531053
1.7798197391623964,0.961188660307652,-0.014232040931310619,0.08936024154707896,-0.9811726012587417
1.776621913016176,0.941939802621242,-0.013575142948868394,0.07802112963909962,-0.8926414146237147
1.7735894176419214,0.9252700145794783,-0.012794382044649458,0.06693354898493493,-0.7954183506710454
1.7707535622081,0.9111208680921195,-0.011865230423361576,0.05610250742686721,-0.6898129102202424
1.7681523863034077,0.8994337904494962,-0.01075369048700892,0.04552425468290559,-0.5765514964594054
1.7658334794515023,0.8901522609467243,-0.009410716920862795,0.035184697515110844,-0.45687869350156834
1.76385859739074,0.8832238791438591,-0.007762170564026496,0.025062100770679524,-0.3325873014061938
1.762311942599833,0.878600521204774,-0.005687001530816757,0.015141011743116257,-0.20588791798983538
1.7613188665482915,0.8762314434271055,-0.002948442395630442,0.0054596645844335965,-0.07903272164109348
