x,y,v_x,v_y,omega
2.375,32.48,0.0,3.5897435897435894,-5.061224489795919
2.37315233910468,31.666676635565274,-0.01606661648104293,3.4826334922974764,-4.635670063047463
2.3679623833478454,30.877315499702974,-0.02906343357838925,3.3813763847660034,-4.2644002814430975
2.3600710127813804,30.11062809212179,-0.03955718004304349,3.2854706376790674,-3.9385783037880304
2.3500017559025284,29.365434450009992,-0.04800157542523682,3.1944740763365864,-3.6510527351110946
2.3381839452264703,28.6406505484489,-0.054761995670919376,3.1079946328902928,-3.3959942061615487
2.3249708768043753,27.9352776345654,-0.06013425147773334,3.025682879140152,-3.168618896691225
2.310654151520702,27.248393116082006,-0.06435901185855379,2.9472259772371796,-2.964976185832733
2.2954750734489666,26.579142716110535,-0.06763297137392905,2.8723427181669017,-2.7817841307298354
2.2796337624638507,25.926733671597308,-0.07011755893142924,2.8007794080350767,-2.6163009775884687
2.2632964791187677,25.290428800844282,-0.0719457745040747,2.7323064245999356,-2.46622406801747
2.246601542302075,24.66954130130697,-0.07322758911933992,2.6667153105071155,-2.329609749438796
2.2296641326034194,24.063430165954827,-0.0740542343472281,2.603816301250679,-2.20480951474069
2.212580208457788,23.47149612728809,-0.0745016277886997,2.5434362088948137,-2.0904187724969887
2.1954297122041853,22.893178054308528,-0.07463312224262675,2.4854165996231226,-1.9852355134654112
2.178279205065182,22.327949740515177,-0.07450172244435921,2.4296122159712534,-1.8882267801753798
2.1611840407364333,21.77531703118047,-0.07415188041432479,2.3758896043305384,-1.7985013259246494
2.1441901645925303,21.234815246364445,-0.07362095561961339,2.324125915808827,-1.715287210963918
2.1273356078625882,20.70600686279281,-0.07294040724944895,2.274207854379307,-1.6379133581120344
2.1106517323147083,20.18847942319116,-0.07213677142776667,2.226030750852426,-1.565794299875027
2.094164270121922,19.6818436461832,-0.07123246503124767,2.1794977448689794,-1.4984175105915671
2.077894194992405,19.185731713617187,-0.07024644913846288,2.134519060052892,-1.4353328421047922
2.061858453825,18.69979571532923,-0.06919477840418782,2.0910113598423496,-1.3761436787605477
2.0460705827093926,18.223706233999557,-0.06809105738370433,2.048897173459165,-1.3204995036976668
2.0305412267311724,17.757151054998626,-0.06694682068777677,2.008104383070675,-1.2680896283271594
2.0152785795359507,17.29983398802611,-0.06577185057501936,1.9685657645164196,-1.2186378842881205
2.0002887557758933,16.851473788973934,-0.06457444299069892,1.930218575067736,-1.1718981148203849
1.985576107267947,16.41180317184161,-0.06336163099144376,1.8930041826046429,-1.12765033254457
1.9711434918273332,15.980567901735185,-0.06213937283997904,1.8568677313642472,-1.0856974347283181
1.9569925022173655,15.55752596102084,-0.06091271072495685,1.821757840064843,-1.0458623865071601
1.9431236614101468,15.14244678160588,-0.05968590498998882,1.7876263287609055,-1.0079857981988425
1.9295365893289507,14.735110537104248,-0.05846254788997743,1.7544279712532744,-0.9719238355637344
1.9162301453997308,14.33530748932796,-0.05724566019019594,1.7221202702796516,-0.9375464122175396
1.9032025505424226,13.94283738414456,-0.0560377733516143,1.6906632530542476,-0.9047356218645961
1.8904514916554087,13.557508892265894,-0.05484099957894121,1.6600192850211155,-0.8733843749602948
1.8779742111669155,13.17913909099526,-0.05365709162534684,1.6301528999409223,-0.8433952101225045
1.8657675838276329,12.8075529833671,-0.05248749393363493,1.6010306446517863,-0.8146792553273257
1.8538281825852605,12.44258305147294,-0.051333386434818926,1.5726209370365478,-0.7871553178300124
1.8421523351024591,12.084068841085735,-0.05019572211128049,1.544893935895681,-0.7607490849965549
1.8307361722453774,11.731856574977108,-0.04907525925464647,1.5178214215706296,-0.7353924209350581
1.8195756696729175,11.385798792573176,-0.04797258920152584,1.491376686289644,-0.7110227460754126
1.8086855806891333,11.045755813382868,-0.0467238367444241,1.4655187849304099,-0.682809724518553
1.7980789355132465,10.711593489203185,-0.04550786043720059,1.4402405557624929,-0.6560356743909187
1.7877482460991176,10.383181122738108,-0.04432422142478833,1.415519152629478,-0.6306086353511093
1.7776861341652404,10.06039313750765,-0.04317240408719013,1.3913328928527768,-0.6064436384368685
1.7678853471069154,9.74310881876493,-0.04205183120259067,1.367661183170846,-0.583462091001448
1.758338770678652,9.431212070802552,-0.04096187686926546,1.34448445128462,-0.5615912229078215
1.7490394389255384,9.12459118941534,-0.03990187750563647,1.3217840825172282,-0.5407635871846916
1.739980541774235,8.823138648394174,-0.03887114120134953,1.299542361145093,-0.5209166091774642
1.7311554306360064,8.526750899022367,-0.037868955652811453,1.2777424160010489,-0.5019921789464504
1.7225576223243753,8.235328181633523,-0.036894594883110414,1.256368169988903,-0.48393628228928226
1.71418080154728,7.948774348368708,-0.035947324917719965,1.2354042931833933,-0.4666986663082665
1.706018822196988,7.666996696342277,-0.03502640856307785,1.21483615922036,-0.45023253591749357
1.69806570762958,7.38990581049034,-0.034131109414385644,1.1946498047095295,-0.43449427809859353
1.690315650098782,7.117415415434639,-0.03326069520124835,1.174831891427005,-0.41944321107630256
1.6827630094857087,6.849442235747862,-0.03241444056460662,1.1553696710667185,-0.40504135590246393
1.6754023114460552,6.58590586405494,-0.031591629345423304,1.1362509523499833,-0.3912532282157358
1.6682282450790702,6.326728636449019,-0.03079155645444554,1.1174640703101832,-0.3780456481892295
1.6612356602077871,6.0718355147409895,-0.03001352938279983,1.0989978575857342,-0.36538756689397106
1.6544195643471946,5.821153975098198,-0.02925686940495877,1.0808416175689814,-0.35324990749624136
1.6477751194259915,5.574613902661508,-0.028520912518548408,1.0629850992718024,-0.3416054198747677
1.6412976383180298,5.332147491760487,-0.027805010159377943,1.0454184737805345,-0.33042854739222904
1.634982581231346,5.093689151374615,-0.027108529724827878,1.028132312183566,-0.31969530468702284
1.628825551995557,4.85917541551407,-0.026430854934208433,1.0111175648646447,-0.30938316546783323
1.6228222942822816,4.628544858217303,-0.02577138605079492,0.9943655420637633,-0.29947095939705937
1.6169741677297071,4.401836824386251,-0.02508188831941783,0.9770086651627666,-0.30725279872713857
1.6112808877253526,4.179106072984979,-0.024424894327142083,0.9597804774569982,-0.31742143665503064
1.6057349577892306,3.960323449900745,-0.023800583378266415,0.9426771145798142,-0.329846659009743
1.6003288558583124,3.745460671493298,-0.0232089986297185,0.9256948715718987,-0.34440254179789587
1.5950550641909653,3.534490288812332,-0.022650059347213897,0.9088301952191128,-0.3609671435130596
1.5899060965674083,3.327385653511751,-0.022123572161976815,0.8920796769598408,-0.3794222103566349
1.5848745230072798,3.1241208853334257,-0.021629241404357336,0.8754400463299441,-0.39965289309454644
1.5799529922085793,2.92467084104004,-0.021166678584343835,0.8589081649168842,-0.42154747433335243
1.5751342518968214,2.7290110846828455,-0.020735411083115284,0.8424810207978529,-0.44499710504993445
1.5704111672591123,2.537117859095506,-0.020334890114355787,0.8261557234398813,-0.46989554925107047
1.5657767376249243,2.3489680585099855,-0.01996449800901784,0.8099294990429207,-0.4961389356731983
1.5612241115435466,2.164539202194419,-0.01962355487252954,0.7937996863098356,-0.5236255154587148
1.5567466003974142,1.9838094090163203,-0.019311324659055034,0.7777637326301431,-0.5522554247633312
1.5523376906807433,1.8067573728371222,-0.019027020703300722,0.7618191906672208,-0.5819304512593207
1.5479910550640188,1.6333623386461085,-0.01876981074647739,0.745963715341608,-0.6125538035018745
1.543700562356899,1.4636040793431349,-0.01853882148934745,0.7301950612059876,-0.6440298821200551
1.5394602864749198,1.2974628730802387,-0.018333142701775048,0.714511080210494,-0.6762640517797431
1.5352645145090111,1.1349194810721102,-0.018151830914823735,0.6989097198601837,-0.709162412843156
1.5311077539912157,0.975955125784651,-0.017993912718180453,0.6833890217698864,-0.7426315716175225
1.526984739445138,0.8205514694092102,-0.017858387682495237,0.6679471206252632,-0.7765784080437652
1.5228904383054966,0.6686905925275823,-0.01774423092308114,0.6525822435628059,-0.8109098396238974
1.5188200562877394,0.5203549728694945,-0.01765039531828629,0.6372927099857718,-0.8455325803225117
1.5147690422859765,0.3755274640597932,-0.017575813392695604,0.6220769318377428,-0.88035289310231
1.5107330928755243,0.2341912742469745,-0.01751939887210747,0.6069334143607105,-0.915276334665093
1.5067081564951308,0.09632994449789578,-0.017480047913922537,0.591860757370411,-0.9502074908668405
1.502690437383519,-0.038072673164840865,-0.01745664001313612,0.5768576570881894,-0.9850497011572489
1.4986763993452512,-0.16903243821623448,-0.017448038580497368,0.5619229085760797,-1.0197047702589843
1.494662769422157,-0.29656494471795725,-0.017453091185537874,0.5470554088302048,-1.0540726651485952
1.4906465415487222,-0.42068554520210455,-0.017470629453024824,0.5322541605971921,-1.0880511952280594
1.4866249802729812,-0.5414093755245517,-0.017499468596897834,0.5175182769892802,-1.1215356733820092
1.4825956246286918,-0.6587513808817533,-0.017538406570835934,0.502846986986366,-1.154418555399601
1.4785562922499884,-0.7727263432068696,-0.017586222809194266,0.4882396419276967,-1.1865890550010045
1.474505083826434,-0.8833489101864984,-0.017641676526061443,0.47369572311252556,-1.2179327314464263
1.4704403880045822,-0.9906336261689788,-0.017703504533518242,0.4592148506481641,-1.2483310464213293
1.4663608868519658,-1.0945949652696925,-0.017770418532711826,0.4447967937058487,-1.2776608865875783
1.462265562011063,-1.1952473670184247,-0.0178411018229642,0.4304414823700896,-1.3057940478715375
1.458153701684487,-1.292605274940037,-0.01791420536465412,0.41614902129611,-1.3325966772352857
1.4540249086086523,-1.3866831785127403,-0.017988343120864614,0.4019197054230222,-1.3579286673600641
1.4498791091918393,-1.4774956590095982,-0.018062086590552407,0.3877540380279033,-1.3816429993837709
1.445716564014246,-1.5650574397993466,-0.01813395843199943,0.37365275144818266,-1.4035850286102614
1.4415378799127572,-1.6493834417632698,-0.018202425059207883,0.35961683084678264,-1.4235917079978135
1.4373440239022939,-1.7304888445769322,-0.018265888075254696,0.34564754144591625,-1.4414907443124012
1.4331363392193837,-1.8083891547099,-0.018322674384834127,0.3317464597103172,-1.4570996822091813
1.4289165638128445,-1.8831002811135278,-0.018371024802463408,0.31791550901685456,-1.4702249123459084
1.4246868516522397,-1.9546386196965884,-0.018409080941925563,0.3041570004010826,-1.480660601174015
1.4204497972784242,-2.0230211478295104,-0.01843487013473102,0.29047367901561894,-1.4881875426474491
1.4162084640839545,-2.088265530266618,-0.0184462880780495,0.2768687769592594,-1.492571936249831
1.4119664168870463,-2.1503902380259063,-0.018441078851586468,0.2633460731214987,-1.493564102220568
1.4077277594550124,-2.209414681904576,-0.018416811861752393,0.2499099606060848,-1.4908971547662935
1.4034971777475398,-2.265359362416291,-0.01837085515974846,0.2365655221044699,-1.4842856690007544
1.3992799897957693,-2.318246037978085,-0.018300344420865,0.22331861321549545,-1.4734243997541006
1.3950822033240682,-2.36809791309782,-0.018202146637404652,0.21017595304304415,-1.4579871437454002
1.3909105824803674,-2.414939848030272,-0.018072817220864706,0.19714522028262446,-1.4376258860767837
1.38677272540487,-2.4587985907483443,-0.017908548653026015,0.18423515117884137,-1.4119704451168258
1.3826771548965877,-2.499703030908357,-0.0177051079407316,0.17145563282125417,-1.380628937498539
1.3786334252332262,-2.5376844734625905,-0.017457758697194636,0.15881778069384192,-1.343189542684573
1.3746522494305593,-2.572776926220925,-0.017161161325995804,0.14633398242213436,-1.2992242757815047
1.3707456531741142,-2.605017390311396,-0.016809240903961256,0.13401787923413397,-1.2482958059788292
1.3669271647904264,-2.63444613420166,-0.016395005910715906,0.12188424155079565,-1.1899688185538682
1.363212055735194,-2.661106919529999,-0.015910290221739887,0.10994867434780534,-1.1238280378390033
1.3596176544672185,-2.685047129195958,-0.015345372978047557,0.09822706187790546,-1.0495057993174841
1.3561637703867409,-2.706317724312889,-0.01468840163480178,0.08673463479108401,-0.9667228657740585
1.35287328718302,-2.724972928438909,-0.013924495788857185,0.07548453152214422,-0.8753466392717413
1.3497730219326955,-2.741069513160774,-0.013034332474834799,0.06448577040709258,-0.7754700550263395
1.346895006601438,-2.7546655614494924,-0.011991887796970434,0.05374073645135801,-0.6675102154074397
1.3442784494065485,-2.7658186654461616,-0.01076078346293924,0.043242776563134085,-0.5523148181906519
1.3419728199623697,-2.774583770858314,-0.009288168225571122,0.03297553136860809,-0.43124311644956326
1.3400429379074974,-2.781011479584123,-0.007493414860275313,0.02291758798623988,-0.3061584278322995
1.338578371847916,-2.785148965972496,-0.005241942179562994,0.013060554521342731,-0.1792478859884979
1.3377165265693292,-2.787050185500952,-0.002252364590758776,0.0034717892043684973,-0.052606986787111315
