x,y,v_x,v_y,omega
2.375,32.48,0.0,3.3846153846153846,-5.918367346938775
2.372983711875815,31.712636046710347,-0.017532940210307893,3.288114643990254,-5.4471606608247765
2.367299700575041,30.96688889319996,-0.03189324501380815,3.1966432126218054,-5.032760610465093
2.3586138784141206,30.241650021440215,-0.04363564334202401,3.1097817592020913,-4.666387809758287
2.3474766650412398,29.53590167011884,-0.05320969033520181,3.027160426201163,-4.340859709955369
2.3343446522415667,28.84870636482129,-0.06098172531412841,2.9484509242123056,-4.050260511594084
2.319597799653414,28.17919807935568,-0.06725177545241642,2.8733602537495444,-3.7896872641592076
2.3035531765031787,27.526574700661413,-0.07226668672354078,2.8016256479397206,-3.555052724890489
2.28647601081176,26.89009154982719,-0.07623040624531925,2.7330104462708906,-3.3429309817465045
2.268588623507626,26.269055769242126,-0.07931209205149915,2.6673006892514266,-3.150435623054757
2.250077689547892,25.662821427874825,-0.08165255107662313,2.6043022791598984,-2.975122904399727
2.2311001674239614,25.070785227796218,-0.08336938043581556,2.543838591088842,-2.8149142743921765
2.211788162670085,24.492382718481615,-0.08456109568485148,2.485748446429425,-2.668034007211505
2.192252933479149,23.92708494329895,-0.08531046249719756,2.4298843812459423,-2.532958706810051
2.1725882025004153,23.374395456407086,-0.08568719818744493,2.3761111569441487,-2.4083762014561287
2.152872904932162,22.83384765910149,-0.08575017197127602,2.324304471800172,-2.2931519112277985
2.133173476645813,22.305002413203763,-0.0855492044317628,2.274349840353986,-2.186301196586151
2.11354576546358,21.78744589593867,-0.08512654497895622,2.226141614125068,-2.086966519762886
2.0940366325064845,21.280787666272772,-0.08451808943057072,2.179582122100149,-1.9943984985952996
2.074685297721646,20.78465891719646,-0.08375438695932756,2.134580913346012,-1.907940123632451
2.05552447352372,20.298710892135702,-0.08286147563133345,2.091054087182314,-1.8270135577253914
2.036581322365204,19.82261344674705,-0.0818615779209839,2.0489236988059782,-1.751109053168163
2.0178782675405067,19.356053739907473,-0.08077368142420684,2.008117230233816,-1.6797756124143672
1.9994336812877203,18.89873503985701,-0.07961402512176281,1.9685671180311022,-1.6126130901837856
1.9812624700156767,18.450375633264265,-0.07839650767861563,1.9302103306014269,-1.5492654917182054
1.9633765730465238,18.010707826522903,-0.07713303118358246,1.8929879888886618,-1.489415267330133
1.9457853884647698,17.579477029899003,-0.07583379126645275,1.8568450252322448,-1.4327784397234038
1.9284961373762095,17.15644091627356,-0.074507522547116,1.8217298758585516,-1.3791004297812732
1.9115141760045256,16.74136864719192,-0.07316170677187406,1.787594203112238,-1.3281524701075906
1.8948432635105705,16.33404015976776,-0.07180274969730058,1.7543926440543662,-1.2797285147294657
1.8784857921464144,15.934245508714405,-0.07043613173014406,1.7220825824965367,-1.2336425689306756
1.862442985302887,15.541784258406935,-0.0690665364744415,1.6906239419162288,-1.1897263758939582
1.8467150681351847,15.156464920429336,-0.06769796063601498,1.659978997019404,-1.1478274072467787
1.8313014147236888,14.778104432543103,-0.06633380815960072,1.6301122019913292,-1.1078071131718332
1.8162006751202262,14.406527675437111,-0.06497697100094411,1.6009900337129528,-1.0695393948122074
1.8014108851223187,14.041567023991345,-0.06362989854607767,1.5725808484241366,-1.032909267552298
1.7869295611922802,13.683061930116036,-0.062294657367299625,1.5448547504915966,-0.997811688613974
1.7727537825802018,13.330858534518843,-0.06097298273772996,1.5177834720927037,-0.9641505264535286
1.758880262408429,12.984809305010806,-0.05966632310377212,1.491340262759779,-0.9318376528243237
1.7453291787330034,12.64477563097633,-0.058169187117320775,1.4654742940617513,-0.8948390610015441
1.7321183764136021,12.310624359640098,-0.05670735479051563,1.4401889349489758,-0.859729611968303
1.7192397432734856,11.982224588495608,-0.05528075947136692,1.4154612489161518,-0.8263884303045052
1.7066851985296871,11.659450555588268,-0.05388919482253274,1.3912694720172296,-0.7947038422952557
1.6944467222466724,11.342181378457806,-0.05253233807324856,1.3675929378128764,-0.7645725652809578
1.6825163798168215,11.030300809684373,-0.05120977001241098,1.3444120080430657,-0.7358989778662782
1.6708863421653373,10.72369700777994,-0.04992099217440773,1.3217080085172146,-0.7085944620026038
1.6595489022807324,10.422262322277419,-0.04866544160476577,1.2994631697655632,-0.6825768090570065
1.6484964885893367,10.125893091969669,-0.047442503537805096,1.277660572040945,-0.6577696829329033
1.6377216756212403,9.834489455340407,-0.04625152227172771,1.2562840943004692,-0.6341021341345794
1.627217192354024,9.547955172310111,-0.04509181048667561,1.2353183668325436,-0.6115081593873023
1.616975928568078,9.266197456493298,-0.04396265721720316,1.214748727226686,-0.5899263020519784
1.6069909395020336,8.989126817229835,-0.042863334661441536,1.194561179412133,-0.5692992891209808
1.59725544905778,8.716656910713006,-0.04179310398424285,1.17474235551681,-0.5495737010608199
1.5877628517708247,8.448704399591648,-0.040751220250152466,1.155279480321096,-0.5306996711870158
1.578506713732638,8.18518882047307,-0.039736936603643115,1.1361603381013332,-0.5126306116248278
1.5694807726264253,7.926032458798623,-0.03874950779820767,1.1173732416764524,-0.49532296323318786
1.56067893701597,7.671160230604752,-0.03778819316227231,1.0989070034876538,-0.47873596715411565
1.5520952850083227,7.4204995707197305,-0.03685225907813956,1.0807509085560032,-0.4628314559010858
1.5437240623947333,7.173980326980519,-0.03594098104003001,1.0628946891762545,-0.44757366212157834
1.5355596803600484,6.931534660085255,-0.03505364534853305,1.0453285012173588,-0.43292904336511295
1.5275967128384789,6.693096948725483,-0.03418955049120458,1.0280429019111,-0.4188661213616564
1.519829893582953,6.45860369966838,-0.03334800825249672,1.0110288290202314,-0.40535533446918753
1.512254113006005,6.227993462483106,-0.03252834459052901,0.9942775812864992,-0.39236890208582775
1.504871358910439,6.001308856710178,-0.0316695171100454,0.9768929036954895,-0.3978307560981763
1.4976818828767686,5.778607759811596,-0.030847665791435927,0.9596383736834789,-0.4057548103760713
1.4906771795422062,5.559860690623264,-0.030062797987366566,0.9425100540411433,-0.41600683922044035
1.4838487568327814,5.345039054608769,-0.029314790790240942,0.9255041721718554,-0.4284571185552983
1.4771881645403706,5.134115106918653,-0.028603403056810722,0.908617112090022,-0.4429801034305054
1.4706870202480564,4.9270619172212164,-0.027928286441574423,0.8918454070181289,-0.4594541195042471
1.4643370328230407,4.723853336171079,-0.027288995515081384,0.8751857325482921,-0.4777610671396233
1.458130023679559,4.524463963389177,-0.026684997036936275,0.8586349003378003,-0.4977861368173371
1.4520579459988534,4.328869116834493,-0.026115678447459805,0.8421898523116178,-0.5194175346245057
1.4461129020791916,4.13704480345362,-0.025580355636553538,0.8258476553481476,-0.54254621662855
1.440287158976009,3.9489676909993925,-0.025078280043295965,0.8096054964277489,-0.5670656309852954
1.434573162580491,3.7646150809141403,-0.02460864513512159,0.7934606782266058,-0.5928714666621031
1.4289635502741795,3.5839648821767973,-0.024170592311065938,0.777410615141591,-0.6198614076802048
1.4234511622874189,3.406995586016013,-0.023763216269461235,0.7614528297347831,-0.6479348917955147
1.4180290518806213,3.233686241393741,-0.023385569876605568,0.7455849495893245,-0.6769928725440157
1.4126904944593455,3.0640164311652605,-0.02303666856927029,0.7298047045713837,-0.7069375835762602
1.4074289957270305,2.8979662488224953,-0.02271549432042448,0.7141099244961426,-0.7376723041953736
1.4022382989728475,2.7355162757275515,-0.022420999194211106,0.6984985371990243,-0.7691011249939201
1.397112391586521,2.576647558742728,-0.022152108512976547,0.6829685670168386,-0.8011287124566723
1.3920455108870884,2.421341588161763,-0.021907723656003065,0.6675181336872195,-0.8336600713582275
1.3870321493484015,2.2695802758446817,-0.02168672450649186,0.6521454516787054,-0.8666003037359429
1.382067059300725,2.121345933455295,-0.021487971560261093,0.6368488299681442,-0.8998543631590843
1.3771452571850444,1.9766212506959704,-0.021310307706525495,0.6216266722868548,-0.9333268029436149
1.3722620274346766,1.8353892734288237,-0.02115255968797773,0.6064774778622438,-0.9669215168777412
1.3674129260574808,1.697633381565609,-0.021013539244159402,0.5913998426874362,-1.000541470925179
1.362593783991446,1.563337266600378,-0.02089204393875201,0.5763924613580613,-1.0340884242599822
1.3578007103066818,1.4324849086490836,-0.02078685766789233,0.5614541295227587,-1.0674626378575198
1.3530300953279435,1.305060552848694,-0.020696750842875325,0.5465837470023729,-1.1005625687195866
1.3482786137538039,1.181048684954547,-0.020620480236598824,0.5317803216423721,-1.1332845476465174
1.3435432278515365,1.0604340059586725,-0.02055678847877034,0.5170429739739344,-1.165522438284488
1.3388211908107581,0.9432014055329354,-0.020504403180172246,0.5023709427716183,-1.1971672749711328
1.3341100503440124,0.8293359340790687,-0.020462035661095054,0.48776359160982247,-1.2281068766768475
1.329407652628855,0.7188227731422288,-0.02042837925331671,0.473220416536623,-1.2582254340930676
1.3247121466937806,0.611647203915247,-0.020402107138634985,0.4587410550023599,-1.2874030666540117
1.3200219893596556,0.507794573526759,-0.020381869679841787,0.44432529620187555,-1.315515345998183
1.3153359508593896,0.4072502587669433,-0.020366291192037436,0.4299730930139423,-1.342432782086373
1.3106531212715906,0.3099996268591454,-0.02035396609317152,0.41568457574952133,-1.3680202679039388
1.3059729179191897,0.21602799283342478,-0.020343454362489737,0.40146006795241845,-1.3921364784024493
1.3012950939017494,0.12532057299772248,-0.020333276223948576,0.3873001045319293,-1.4146332191034996
1.296619747950783,0.03786243393360422,-0.020321905958366283,0.37320545254733256,-1.4353547196318157
1.2919473358213025,-0.046361563635315406,-0.020307764732769264,0.359177135008492,-1.4541368674195938
1.2872786834605077,-0.12736682684334255,-0.0202892123176207,0.3452164581048036,-1.4708063770086772
1.2826150022266771,-0.20516909939276928,-0.020264537541774465,0.3313250423249895,-1.4851798908879705
1.2779579064686968,-0.27978453792788116,-0.020231947310228506,0.31750485798032707,-1.4970630088102328
1.273309433820341,-0.3512297971499052,-0.020189553979822448,0.30375826568946684,-1.5062492442826476
1.2686720686147854,-0.41952212488212126,-0.020135360851094984,0.2900880624167591,-1.5125189097800118
1.264048768885814,-0.48467946843165777,-0.02006724548778659,0.2764975336661395,-1.5156379367136534
1.2594429974955412,-0.5467205937292903,-0.019982940514585375,0.26299051240022686,-1.5153566430698435
1.2548587580182589,-0.6056652188475269,-0.019880011461783646,0.24957144514965968,-1.5114084720276615
1.2503006361223301,-0.6615341635785157,-0.01975583111150903,0.2362454655545786,-1.503508740413329
1.2457738473363378,-0.7143495167615157,-0.01960754963625108,0.22301847516714832,-1.4913534589364101
1.2412842922767766,-0.7641348229283835,-0.019432059577324367,0.20989723063172117,-1.4746183202749035
1.236838620676212,-0.8109152894969114,-0.019225954340627113,0.1968894351815944,-1.4529580013186427
1.2324443059213916,-0.8547180150501603,-0.018985478309985166,0.18400383049885013,-1.4260059996137011
1.2281097323530936,-0.8955722379884037,-0.018706465762172372,0.17125028200763107,-1.3933753318362185
1.2238442983968942,-0.9335096027183525,-0.018384264291736188,0.15863984607889708,-1.3546605788051485
1.2196585398575859,-0.968564437095317,-0.018013636050075322,0.14618480067733375,-1.3094419872614054
1.2155642797034525,-1.000774029406486,-0.01758862615978113,0.13389861072410572,-1.2572926589759683
1.2115748138604256,-1.0301788848943687,-0.017102381170887988,0.12179578482270201,-1.197790300856106
1.207705147706806,-1.0568229295803064,-0.01654688973015271,0.10989156027242715,-1.1305355953466996
1.2039723063767962,-1.0807536118828978,-0.015912600096018376,0.09820132931530152,-1.0551799594324478
1.200395755693408,-1.1020218298777067,-0.015187840629097768,0.08673969672653492,-0.9714661616314381
1.1969979928028949,-1.1206815861682529,-0.01435792363623413,0.07551905362603678,-0.879285558752315
1.1938054014682997,-1.1367892518820568,-0.013403740142855065,0.0645476047548465,-0.7787546347365801
1.1908495248247002,-1.1504023290900705,-0.012299535018879156,0.05382697966268603,-0.6703091327122693
1.1881690043928121,-1.1615776862808573,-0.011009338301886079,0.043350039387649794,-0.5548032768899357
1.1858126120078443,-1.1703694954111583,-0.009481030263051502,0.03310047478887169,-0.4335815154540187
1.1838442206977724,-1.176827676610472,-0.007635415911486713,0.0230576225964571,-0.3084634812404539
1.1823519385780636,-1.1809989351189927,-0.005340950346849839,0.01321419052110502,-0.1815655007577158
1.181470396770071,-1.18293678267257,-0.002324630592216224,0.0036366577708829163,-0.0549048586689847
