x,y,v_x,v_y,omega
2.375,32.48,0.0,3.8974358974358974,-4.6938775510204085
2.3734406862788977,31.67357825817444,-0.014850606867641203,3.7827711675694053,-4.303286584699801
2.3690581219014932,30.890587386145462,-0.026888101488590332,3.6742847565160863,-3.9620791986675057
2.3623889647245937,30.1297842540718,-0.03662768114854835,3.5714593584711958,-3.662295642757133
2.3538723720771517,29.3900281554513,-0.044482725017568316,3.4738368188668947,-3.397477596726714
2.343869074357033,28.670269314674115,-0.050786777078796974,3.381009283772938,-3.1623485309860624
2.3326763755741715,27.969539076607454,-0.05581035418655397,3.292612031147656,-2.9525693967626405
2.3205400286324704,27.28694146616326,-0.05977390240107211,3.208317592130394,-2.7645502263857327
2.30766369374018,26.621645876814434,-0.06285785847788311,3.1278308778584325,-2.595303656406113
2.294216514355567,25.972880698992444,-0.06521051661367003,3.05088510139859,-2.4423301793347454
2.2803392172210875,25.339927738008495,-0.0669542180004217,2.9772383365438086,-2.3035276147070247
2.2661490481489013,24.722117300448627,-0.06819024935373558,2.906670592597787,-2.1771192140567797
2.251743784163755,24.118823850518194,-0.06900274098098676,2.8389813115015734,-2.0615962082416432
2.2372050089662783,23.52946215536028,-0.0694617847092701,2.7739872138118824,-1.9556716256242064
2.2226007978804416,22.953483852216074,-0.06962593991774386,2.711520435180579,-1.8582429630411725
2.2079879272040364,22.390374381338276,-0.0695442570004018,2.6514269065127567,-1.768361852740083
2.1934136987993864,21.83965023746808,-0.0692579182819798,2.593564939870033,-1.6852092898688098
2.178917452089479,21.30085649992411,-0.06880157419333129,2.5378039891201802,-1.6080753038530995
2.164531821065325,20.773564607287298,-0.06820443556051736,2.484023559801808,-1.5363421997725493
2.150283782497385,20.257370347570365,-0.06749116984843187,2.4321122470261622,-1.4694706819621648
2.1361955325522306,19.7518920388404,-0.06668263915303778,2.3819668837354016,-1.4069883156281753
2.1222852218976525,19.256768878678894,-0.06579650993818568,2.333491784469405,-1.348479893650585
2.1085675737190606,18.771659443738606,-0.06484775842935589,2.2865980721047623,-1.2935793626433647
2.0950544045491855,18.296240323090064,-0.06384909080754714,2.241203076928981,-1.2419630304975267
2.0817550641873797,17.83020487111926,-0.0628112935906061,2.1972297989834315,-1.1933438313557436
2.0686768080654514,17.37326206750496,-0.06174352661823346,2.154606425914672,-1.147466466519863
2.055825113057377,16.92513547331901,-0.060653568696762056,2.1132658996658047,-1.1041032736534189
2.0432039458160935,16.48556227359711,-0.059548024077362434,2.0731455262570586,-1.0630507037052297
2.0308159911623944,16.054292397853796,-0.05843249643405921,2.034186623679256,-1.0241263067040574
2.01866284677818,15.631087710991547,-0.057311735796554415,1.9963342035802611,-0.9871661450834363
2.0067451894133868,15.215721267902389,-0.05618976291576382,1.959536682983171,-0.952022567363753
1.9950629169585725,14.80797662580018,-0.0550699747491329,1.9237456227521474,-0.9185622865268258
1.9836152700283036,14.407647208968474,-0.05395523411056922,1.8889154899307732,-0.8866647168003969
1.9724009361160006,14.014535721175648,-0.05284794600660259,1.8550034414294723,-0.8562205302461063
1.9614181388962648,13.628453601507157,-0.05175012275278594,1.8219691268418625,-0.8271304008465268
1.9506647148477678,13.249220519803373,-0.05066343961385235,1.7897745084322894,-0.7993039089779324
1.9401381790338972,12.876663908278722,-0.049589282423011485,1.758383696564382,-0.7726585834453158
1.9298357815976657,12.510618526240428,-0.04852878839824028,1.7277627990384041,-0.7471190618123031
1.919754556292257,12.150926055128735,-0.04748288117707975,1.6978797829777308,-0.7226163527155043
1.9098913621711475,11.797434721370237,-0.04645230092872556,1.6687043480555876,-0.6990871863186855
1.900242919395597,11.449998944775949,-0.04543763026699463,1.6402078099852682,-0.6764734411244046
1.8908058399771734,11.108479010429633,-0.044439316575134925,1.612362993312988,-0.6547216370902411
1.881576654154545,10.772740762203046,-0.04345769125942138,1.585144132654512,-0.633782486451122
1.872551833003477,10.44265531620563,-0.042492986369799035,1.5585267816065778,-0.6136104948754393
1.8637278077938644,10.118098792629372,-0.04154534895984318,1.5324877286435021,-0.5941636066191501
1.8551009865352825,9.798952064586949,-0.04061485350283935,1.507004919379584,-0.5754028882203437
1.8466677680909074,9.485100522664876,-0.03970151263406736,1.4820573846401435,-0.5572922460228237
1.8384356173758412,9.176434874550157,-0.03869992274751679,1.4576154545476603,-0.5367863070238951
1.8304109993941582,8.872849847929977,-0.03772501041136812,1.433670513263587,-0.5172433492568619
1.822588371462988,8.574242980431535,-0.03677620798072948,1.4102044152930184,-0.4986065465186507
1.814962312483647,8.280515530886348,-0.035852925155850514,1.3871998660897333,-0.48082306280311177
1.8075275270385478,7.991572305879039,-0.034954555273664444,1.3646403720751163,-0.4638437277651767
1.800278848265751,7.70732149642598,-0.03408048065773469,1.3425101941444966,-0.4476227420909956
1.7932112396952928,7.4276745240810165,-0.03323007715615278,1.3207943043789567,-0.43211740970180507
1.7863197962061008,7.1525458958220405,-0.03240271797900812,1.2994783457065304,-0.41728789406666406
1.7795997442404778,6.8818530671234655,-0.03159777693168843,1.2785485942799086,-0.40309699620378714
1.7730464413943061,6.6155163126664185,-0.030814631127089563,1.2579919243586377,-0.38950995221769646
1.76665537548487,6.353458604180993,-0.030052663248491707,1.237795775502559,-0.37649424845469476
1.7604221631841406,6.095605494953709,-0.02931126342512248,1.2179481219001558,-0.3640194525664135
1.754342548293228,5.841885010568767,-0.028589830774045557,1.1984374436707286,-0.3520570589540324
1.7484123997232002,5.592227545484064,-0.02788777465478977,1.179252699993108,-0.3405803472272952
1.7426277092383726,5.346565765072551,-0.027204515676902234,1.160383303926075,-0.3295642524553576
1.7369845890102988,5.104834512786635,-0.026539486495228578,1.1418190987969512,-0.31898524611310736
1.7314792690238772,4.866970722128226,-0.025892132423073335,1.1235503360450463,-0.3088212267389132
1.7261080943710705,4.632913333129821,-0.025261911889371397,1.105567654415939,-0.2990514194195254
1.7208675224626218,4.402603213072993,-0.024648296762519863,1.0878620604110003,-0.2896562833065882
1.7157541201837043,4.175983081189894,-0.024050772560503253,1.0704249099042387,-0.2806174264482473
1.7107645610155968,3.9529974371111685,-0.023468838564330383,1.0532478908455265,-0.2719175272897975
1.7058956221421413,3.7335924928399464,-0.0229020078495329,1.0363230069756346,-0.26354026226021887
1.701144181556847,3.5177161080466526,-0.022349807248506645,1.0196425624843006,-0.2554702389176686
1.6965072151840033,3.305317728493275,-0.021811777254767142,1.0031991475478597,-0.2476929341773052
1.6919817940249886,3.0963483274085313,-0.021287471878704868,0.9869856246878053,-0.24019463718988648
1.6875694853952141,2.890900268058463,-0.02073451507152834,0.9696625595985601,-0.25956382720013504
1.6832697215063357,2.6890782045841632,-0.02021561720350474,0.9524523306328524,-0.28077295187060847
1.6790753898910535,2.490858769020484,-0.0197303981801354,0.9353518175926651,-0.3037137117330494
1.674979466338217,2.2962192359871842,-0.01927839756116529,0.9183580208197069,-0.3282806765662245
1.6709750309753781,2.1051374978948694,-0.018859082084917687,0.9014680562499584,-0.35437105267181723
1.667055282836316,1.9175920411481826,-0.01847185257281812,0.8846791508613595,-0.3818844571514236
1.6632135530390117,1.733561923265384,-0.01811605025865218,0.8679886384986291,-0.4107226982846219
1.6594433166906046,1.5530267508365654,-0.017790962583319043,0.851393956061542,-0.44078956112926787
1.6557382036276647,1.3759666582453498,-0.017495828492299543,0.8348926400452832,-0.4719905974802685
1.652092008092652,1.2023622870810975,-0.017229843269726944,0.8184823234237752,-0.5042329193321072
1.648498697440651,1.0321947661703383,-0.016992162939803643,0.8021607328691657,-0.5374249949932801
1.6449524199643228,0.8654456921572624,-0.01678190826332328,0.7859256863029821,-0.5714764469974281
1.6414475119194818,0.70209711056388,-0.0165981683542106,0.7697750907768518,-0.6062978509461255
1.6379785038287726,0.5421314972605771,-0.01644000393825721,0.7537069406831612,-0.6418005344017449
1.634540126136529,0.3855317402774858,-0.016306450273586962,0.7377193162986418,-0.6778963749252244
1.6311273142840728,0.23228112188613181,-0.016196519749805797,0.7218103826666388,-0.7144975963225104
1.6277352132714165,0.08236330087932231,-0.01610920418025462,0.7059783888267964,-0.7515165621244203
1.624359181768567,-0.06423770502492232,-0.016043476799264732,0.6902216674041245,-0.7888655652770992
1.6209947958373965,-0.20753753673251651,-0.01599829397378852,0.6745386345729374,-0.8264566129634402
1.617637852323346,-0.34755151135625795,-0.015972596636216516,0.6589277904150566,-0.864201205409032
1.6142843719750735,-0.48429463991791977,-0.015965311442567045,0.6433877196959894,-0.9020101074485127
1.6109306023495646,-0.6177816452602016,-0.01597535165751571,0.627917093087636,-0.9397931115386804
1.6075730205602126,-0.7480269802659123,-0.01600161776488593,0.6125146688715066,-0.977458790802256
1.6042083359259824,-0.8750448464894873,-0.016042997799211825,0.5971792951625747,-1.0149142405696767
1.6008334925810341,-0.9988492133151468,-0.016098367390771303,0.5819099127008502,-1.052064806754476
1.5974456721061354,-1.1194538377666348,-0.016166589513025676,0.5667055582656818,-1.0888137992494251
1.5940422962459153,-1.2368722851061023,-0.01624651391764277,0.5515653687768435,-1.125062188364434
1.5906210297795549,-1.3511179503741388,-0.01633697623816846,0.5364885861568074,-1.1607082821420467
1.5871797836169645,-1.4622040810398502,-0.016436796738883753,0.5214745630404708,-1.195647382181303
1.5837167181979428,-1.5701438009494808,-0.01654477868037109,0.5065227694322203,-1.2297714153751844
1.5802302472783918,-1.6749501357845773,-0.01665970626773377,0.491632800425858,-1.2629685387208915
1.5767190421954562,-1.776636040266986,-0.016780342141175443,0.4768043851208787,-1.295122714096906
1.57318203671266,-1.8752144273780473,-0.016905424361646982,0.4620373968892135,-1.3261132496188068
1.5696184325568667,-1.9706981998942865,-0.01703366283638463,0.4473318651701931,-1.3558143038920987
1.5660277057714196,-2.0631002845819992,-0.01716373512025391,0.4326879889985114,-1.3840943491833009
1.5624096140243284,-2.152433669439418,-0.017294281518710673,0.4181061525007466,-1.4108155892437075
1.558764205027161,-2.238711444428233,-0.01742389940669168,0.40358694263083683,-1.4358333272644181
1.555091826239675,-2.321946846197143,-0.017551136664604988,0.3891311694540284,-1.4589952792479919
1.5513931360575546,-2.4021533073697015,-0.017674484117493398,0.3747398893322111,-1.4801408279984287
1.547669116706389,-2.479344511047728,-0.017792366845990018,0.3604144314108694,-1.4991002130265518
1.5439210890947397,-2.553534451270977,-0.01790313421733583,0.3461564278581397,-1.5156936520440911
1.5401507299135413,-2.624737500273639,-0.018005048460743817,0.3319678483576983,-1.5297303905255695
1.536360091308978,-2.692968483488812,-0.01809627158271647,0.31785103940586296,-1.5410076772692531
1.5325516235025776,-2.7582427633717757,-0.01817485038300289,0.30380876900332965,-1.5493096663025165
1.5287282007870822,-2.820576333239238,-0.01823869928838101,0.28984427735344515,-1.5544062493124355
1.5248931513918969,-2.8799859224487676,-0.018285580665765654,0.27596133416590907,-1.5560518287085496
1.5210502917907172,-2.9364891143608602,-0.018313082202612296,0.2621643030921203,-1.5539840504174591
1.5172039661210142,-2.9901044786184414,-0.01831859084217789,0.2484582136467168,-1.5479225289926946
1.513359091507556,-3.0408517193183755,-0.018299262619328106,0.23484884063834588,-1.5375676176786457
1.509521210241304,-3.088751840592934,-0.018251987535452402,0.2213427905479064,-1.5225993057323486
1.5056965499786303,-3.133827330898235,-0.018173348299535385,0.20794759331212045,-1.5026763690104925
1.5018920934225943,-3.1761023668158757,-0.018059571281761153,0.19467179637971127,-1.4774359639998391
1.498115659374825,-3.215603036251416,-0.017906467268421815,0.18152505538733485,-1.4464939493605642
1.4943759976804372,-3.252357579315209,-0.017709358392413683,0.16851821188690588,-1.4094463557789572
1.4906829015568976,-3.2863966425349673,-0.017462985641298206,0.155663342586981,-1.3658726225732458
1.4870473423128048,-3.3177535378518215,-0.0171613881119668,0.14297375566878806,-1.3153415017733543
1.4834816338767078,-3.3464644913660138,-0.01679773985085963,0.13046389684731122,-1.2574209253776265
1.4799996384546037,-3.3725688570858665,-0.016364121312036704,0.11814911000841724,-1.191693664824233
1.476617030983049,-3.396109256951952,-0.015851187940863126,0.10604517443046502,-1.1177812859800667
1.473351650418079,-3.417131589427484,-0.015247674582662801,0.09416751581268676,-1.0353796455272448
1.4702239828302575,-3.4356848256982815,-0.014539635777541995,0.08252997248064045,-0.9443097206025404
1.4672578487821566,-3.4518204898863445,-0.013709259918657296,0.07114301978660302,-0.8445872229364382
1.4644814120159686,-3.465591712166926,-0.0127329949974163,0.06001147812372916,-0.7365117265722071
1.4619286996321321,-3.4770517850728027,-0.011578551515312445,0.049132073360774936,-0.6207682686113071
1.4596419525265045,-3.4862523100496148,-0.01019999234780855,0.038491974037417574,-0.4985182068325729
1.457675395327485,-3.493241408620243,-0.008529123833328938,0.028070869492361757,-0.3714308547061302
1.4561017809080106,-3.4980633126894105,-0.00645768016166666,0.017852026404495017,-0.24158272939595982
1.4550261654816516,-3.5007628548194987,-0.0037862762798475144,0.00785789864396189,-0.1111517532727474
