x,y,v_x,v_y,omega
2.375,32.48,0.0,3.5897435897435894,-5.795918367346939
2.3735792309528727,31.806633660831015,-0.014955463653973064,3.498323138350944,-5.388695336081144
2.369545813896494,31.150241942652965,-0.02750155799211635,3.4110633687864254,-5.0245865961391285
2.363322017305284,30.510063178077882,-0.03801209033640963,3.327660468846044,-4.69770478046443
2.355265065659407,29.885390462809593,-0.04679792698861203,3.247841797135957,-4.403111644802224
2.345677988594226,29.27556614316987,-0.05411867369750576,3.171361567492708,-4.136643838534714
2.3348184778880383,28.679977050229574,-0.06019196531499609,3.0979973055629926,-3.8947744347589124
2.322906155323712,28.098050349900106,-0.06520090378317632,3.0275469084314155,-3.674502101677574
2.3101285647320244,27.52924990638893,-0.06930004981353168,2.9598261811599174,-3.4732618209764157
2.29664613375225,26.97307307746182,-0.07262027628935762,2.8946667549149416,-3.2888525318462927
2.2825962991349487,26.429047875939645,-0.07527271968223542,2.831914313739525,-3.1193781642647718
2.268096949598747,25.896730444152997,-0.07735201227778025,2.7714270734883426,-2.9631993328935375
2.2532493093508963,25.375702797645474,-0.0789389376995976,2.713074468696129,-2.8188935701758777
2.2381403612204402,24.8655708019437,-0.0801026215683613,2.6567360123751467,-2.685222437768571
2.2228448893368746,24.36596235219582,-0.08090234562706355,2.602300300760459,-2.5611042075900605
2.207427206229726,23.87652573028319,-0.08138905550081672,2.5496641404250995,-2.445591075044193
2.1919426172349383,23.396928117901076,-0.0816066181285302,2.49873177938666,-2.33785007740425
2.1764386654979377,22.92685424728274,-0.08159287383989669,2.4494142271221286,-2.237147054614046
2.1609561931460144,22.46600517385947,-0.08138051933824472,2.40162865101752,-2.1428331187723626
2.1455302479684963,22.014097157320766,-0.0809978509514185,2.355297838863612,-2.0543332004510275
2.13019085988586,21.570860639353334,-0.08046939202370099,2.3103497186883146,-1.9711363208823414
2.1149637073699195,21.136039307862912,-0.07981642393356515,2.2667169285792723,-1.892787303584783
2.099870690609873,20.709389238772715,-0.07905743669850328,2.2243364302648923,-1.8188796907243294
2.0849304254562275,20.290678107589283,-0.07820851228724113,2.183149161139672,-1.7490496711575643
2.0701586699002315,19.8796844638639,-0.07728365146008406,2.1430997201801487,-1.682970860777997
2.0555686929679853,19.47619706248277,-0.07629505308987676,2.1041360838317673,-1.6203498031250234
2.0411715943521287,19.080014246413292,-0.07525335339282302,2.0662093484784934,-1.5609220804939101
2.026976581810843,18.69094337613511,-0.07416783125229243,2.029273496555,-1.504448944008277
2.0129912122862526,18.308800301507013,-0.07304658479602755,1.9932851837407315,-1.4507143860749554
1.9992216017938351,17.93340887227683,-0.07189668354520619,1.9582035449980557,-1.3995225909614741
1.9856726083799736,17.56460048384021,-0.07072429975859944,1.9239900174927096,-1.3506957094172194
1.9723479918110658,17.202213655204602,-0.06953482201937868,1.890608178671553,-1.304071911698688
1.9592505531239852,16.84609363642302,-0.06833295363409918,1.8580235979766453,-1.2595036803763477
1.9463822567172828,16.496092043034395,-0.06712279801540126,1.826203700851007,-1.2168563101523302
1.9337443372814815,16.152066515288332,-0.0659079328877693,1.7951176438443694,-1.1760065868119391
1.9213373935437608,15.813880400145887,-0.06469147487771211,1.764736199760305,-1.136841621535853
1.9091614705278044,15.481402454237944,-0.06347613581656515,1.7350316519022548,-1.0992578202506331
1.8972161317958625,15.154506566132358,-0.06226427188808684,1.705977696577599,-1.0631599706041739
1.8855005229406494,14.833071496412217,-0.06105792658784118,1.6775493531080863,-1.0284604316112593
1.8740134274242268,14.51698063420298,-0.059858868321869124,1.6497228806733666,-0.9950784130972691
1.8627533157150094,14.206121768907575,-0.058668623354105755,1.622475701383528,-0.9629393338368812
1.8517183885487392,13.900386876017564,-0.05748850471189644,1.5957863290376435,-0.9319742487901918
1.8409066150315878,13.59967191596644,-0.056319637573907254,1.5696343030794526,-0.902119337123046
1.8303157662107972,13.303876645079505,-0.05516298159230975,1.54400012730932,-0.8733154437964747
1.8199434446582892,13.012904437754461,-0.05401935053935295,1.5188652129543092,-0.845507668450945
1.8097871105435637,12.72666211907886,-0.05288942961565335,1.4942118257362416,-0.8186449961188911
1.7998528065449886,12.445061566208288,-0.05168219142197713,1.4700045202697865,-0.7901423417717656
1.790145418838673,12.16801769404362,-0.05050083706555799,1.4462467656740936,-0.7628917453451426
1.7806600481885617,11.895446563266812,-0.049345169777716004,1.4229230319765265,-0.7368237748620875
1.7713918383588307,11.627267120359534,-0.04821493369313811,1.400018472310617,-0.7118735776021919
1.7623359864611965,11.363401071410774,-0.047109823124062776,1.377518885044747,-0.6879805299135817
1.7534877516505913,11.103772762882752,-0.04602949067178215,1.3554106784081337,-0.6650879173848422
1.7448424623765655,10.84830906887883,-0.04497355431796421,1.333680837422633,-0.6431426424404004
1.7363955223724257,10.596939284491949,-0.04394160362035116,1.3123168929655875,-0.622094956735757
1.728142415541921,10.349595024843836,-0.04293320512180427,1.2913068928040228,-0.6018982160054717
1.7200787098838786,10.106210129454311,-0.04194790706811376,1.2706393744541191,-0.5825086552615376
1.712200060578179,9.86672057160661,-0.040985243518196504,1.2503033397321976,-0.5638851824566844
1.704502212341548,9.631064372398964,-0.04004473792002564,1.2302882308746093,-0.5459891889196451
1.6969810011485618,9.399181519195043,-0.03912590621667016,1.210583908114027,-0.5287843750404865
1.6896323554017738,9.171013888206375,-0.03822825953899381,1.19118062860881,-0.5122365898363063
1.682452296624771,8.946505170958645,-0.037351306534719964,1.1720690266304465,-0.49631368316320584
1.6754369397431024,8.725600804411194,-0.036494555377582956,1.1532400949216621,-0.48098536946140097
1.6685824930102027,8.508247904514892,-0.03565751549504431,1.1346851671446816,-0.46622310202835515
1.6618852576285699,8.294395203008332,-0.03483969904845833,1.1163959013454263,-0.4519999569114038
1.6553416271103898,8.083992987265827,-0.03404062219554153,1.098364264365167,-0.4382905255977943
1.6489480864164745,7.876993043023177,-0.033259806161462596,1.0805825171363979,-0.42507081575754474
1.6427012109076682,7.673348599818791,-0.03249677814176138,1.0630432008044874,-0.41231815936403493
1.6365976651387315,7.473014278998363,-0.03175107205757221,1.0457391236210514,-0.40001112757966895
1.630634201521046,7.275946044141257,-0.03102222918122238,1.028663348559006,-0.3881294518500773
1.6248076588772546,7.08210115377587,-0.030309798648158855,1.0118091816029458,-0.3766539507008409
1.619114960908097,6.8914381162597635,-0.029613337869290886,0.9951701606718679,-0.3655664617762284
1.6135591754713081,6.704117836737936,-0.0288686140969068,0.9766222553473781,-0.3971118766600193
1.6081404222111788,6.520311396962114,-0.02817089390445509,0.9581823738717837,-0.43010430384755205
1.6028499006824704,6.339998539166629,-0.027518806397740916,0.9398477081859717,-0.4644367577691652
1.5976790733446364,6.163159528680609,-0.026910955053141308,0.9216155600879374,-0.5000042577471424
1.5926196700625104,5.989775133383134,-0.0263459216008182,0.9034833377802348,-0.5367035929040839
1.587663691906934,5.819826603778317,-0.025822269510511472,0.8854485527967821,-0.5744330904579504
1.5828034143283574,5.653295653618784,-0.025338547106083343,0.8675088173035808,-0.613092386408917
1.5780313897717273,5.490164441006733,-0.02489329033212793,0.8496618417706434,-0.652582197615943
1.5733404497968202,5.330415549902071,-0.024485025193209317,0.8319054330152698,-0.6928040942458911
1.5687237067645212,5.174031971966741,-0.024112269883623635,0.8142374926197821,-0.7336602715547526
1.5641745551463946,5.020997088673514,-0.023773536622971374,0.7966560157299929,-0.7750533199286688
1.5596866725122387,4.871294653605979,-0.023467333210250147,0.7791590902440559,-0.8168859920714161
1.555254020248137,4.724908774874319,-0.02319216430661002,0.7617448964050145,-0.8590609661742575
1.550870844055848,4.581823897568476,-0.02294653245432611,0.7444117068143584,-0.9014806038428096
1.5465316742831807,4.442024786166723,-0.022728938836908456,0.7271578868883047,-0.9440467014830092
1.5422313261343317,4.305496506812911,-0.02253788378255639,0.7099818957833995,-0.9866602337634389
1.5379648998090063,4.172224409370255,-0.022371867010341735,0.6928822878234947,-1.0292210876731376
1.533727780619548,4.042194109152728,-0.0222293876155361,0.6758577144662762,-1.0716277855814214
1.5295156391362743,3.9153914682272593,-0.022108943787343807,0.6589069268544334,-1.1137771955779292
1.5253244314128291,3.791802576170671,-0.02200903224892063,0.6420287790043948,-1.1555642272257602
1.521150399345621,3.6714137301542777,-0.021928147405901967,0.6252222316944614,-1.1968815106968413
1.5169900712244209,3.5542114142164927,-0.021864780185679163,0.6084863571243412,-1.2376190570752312
1.5128402625349788,3.4401822775688586,-0.0218174165452901,0.5918203444297045,-1.2776638974097199
1.5086980770791847,3.329313111763909,-0.021784535620962903,0.5752235061487059,-1.3168996978708793
1.5045609084839289,3.2215908265332764,-0.02176460748699368,0.5586952857526852,-1.355206348119172
1.5004264421765263,3.1170024240815444,-0.021756090485664802,0.5422352663708039,-1.3924595197200942
1.4962926579124822,3.015534971594761,-0.021757428083220596,0.5258431808584896,-1.4285301911510913
1.4921578329506333,2.9171755716918533,-0.02176704519939952,0.5095189233826564,-1.4632841356364044
1.4880205459814837,2.8219113305118064,-0.021783343949544415,0.49326256272309416,-1.4965813677260749
1.4838796819270483,2.729729323088751,-0.02180469872872132,0.47707435751961036,-1.5282755442140585
1.4797344377449628,2.6406165556201486,-0.02182945055638982,0.4609547737288292,-1.558213314683618
1.4755843293862685,2.554559924179543,-0.02185590058776261,0.444904504593342,-1.5862336167002606
1.4714292000754703,2.471546169363588,-0.021882302683795703,0.4289244934693525,-1.6121669104801715
1.467269230103545,2.3915618262928326,-0.021906854915416992,0.4130159599070169,-1.6358343477999373
1.463104948350006,2.31459316930583,-0.02192768985867754,0.3971804294298562,-1.657046870061726
1.4589372457794698,2.2406261505960963,-0.021942863515387358,0.3814197675147077,-1.6756042309046149
1.4547673911920835,2.169646331940914,-0.02195034266762733,0.36573621832931014,-1.6912939397290652
1.4505970495465652,2.101638808560157,-0.02194799044309248,0.3501324488365624,-1.7038901242273585
1.4464283032206482,2.036588124023698,-0.02193354982971846,0.334611598915627,-1.713152312851418
1.4422636766279993,1.9744781750006837,-0.021904624829743983,0.31917733816873567,-1.7188241426292075
1.4381061646754743,1.915292104518933,-0.021858658881045084,0.3038339300602046,-1.7206320046309065
1.4339592656231683,1.8590121822887724,-0.021792910090596182,0.28858630394149754,-1.718283649806806
1.4298270190070492,1.8056196705601089,-0.021704422710655855,0.273440135307606,-1.711466793504505
1.4257140494076044,1.755094673953547,-0.021589994125605624,0.25840193423514674,-1.699847780107911
1.4216256170097283,1.7074159717811668,-0.021446136378355466,0.24347914126359,-1.683070403402685
1.4175676761179048,1.6625608316218852,-0.02126903090399559,0.228680228834128,-1.6607550285246384
1.413546943097009,1.6205048034504372,-0.021054474579120293,0.21401480454952668,-1.6324982350233164
1.4095709756523382,1.58122149460646,-0.02079781431214992,0.19949370959758522,-1.597873308199956
1.4056482660242482,1.5446823275844714,-0.02049386598353543,0.1851291011601793,-1.5564320623182146
1.4017883516874616,1.5108562854015695,-0.02013681124579608,0.1709345007651126,-1.507708704900898
1.3980019487356676,1.4797096536960481,-0.01972006193098246,0.15692478034563798,-1.451226772525154
1.394301115667762,1.451205775468793,-0.019236075625919558,0.14311604309916445,-1.3865106159023137
1.39069945938339,1.4253048444447742,-0.018676095788522362,0.12952533610102415,-1.3131035117220264
1.3872124018433118,1.4019637774223064,-0.01802977305440283,0.11617010624075225,-1.230595227197723
1.3838575366758432,1.3811362253156894,-0.0172845971294787,0.1030672843552336,-1.1386626646753988
1.3806551225969588,1.3627728058599153,-0.01642502475351431,0.09023186781079442,-1.0371277418276383
1.3776287889183498,1.346821662598014,-0.015431119231842386,0.07767490336713036,-0.9260360920133097
1.374806574142297,1.333229459000858,-0.014276404726610688,0.06540092397134716,-0.8057567505736962
1.3722224934143807,1.3219428674671114,-0.012924445040929789,0.053405302699664176,-0.6770937002321444
1.3699189625975183,1.3129104413664834,-0.011323247768147752,0.04167286678062869,-0.5413814151201267
1.3679506898070675,1.306084346387287,-0.009395413183966122,0.03018076457934174,-0.4005084052328485
1.3663914707063498,1.301420541375947,-0.007017419455166308,0.018911919750542176,-0.2567874247733528
1.3653487775623505,1.298873596679158,-0.003958297850088459,0.007898024426168429,-0.1125963485483501
