x,y,v_x,v_y,omega
2.375,32.48,0.0,3.4871794871794872,-4.6938775510204085
2.373879684032016,31.825668946638565,-0.01179279966298949,3.4005158113618976,-4.372864194280046
2.3706952887278603,31.187442840644,-0.02172715090707112,3.3176537254229954,-4.084861278541858
2.365773183391342,30.56462457437112,-0.030084484214175367,3.238328024817844,-3.825486909574667
2.359390651541335,29.95656500241399,-0.0371000615753692,3.162299048415137,-3.591045327413288
2.351783872306557,29.362658398563156,-0.04297129879071803,3.0893494131725547,-3.37840483020406
2.343154477041126,28.78233848223489,-0.047864440845395255,3.0192812850197193,-3.1848999051036992
2.333674960175981,28.215074922803403,-0.05191994720876278,2.9519140774169728,-3.0082522779801133
2.323493163545705,27.66037024843459,-0.055256859425719645,2.8870824948863327,-2.846506856694208
2.3127360076334478,27.11775709993813,-0.05797636070330606,2.8246348577079567,-2.697979477848933
2.3015126077964077,26.586795780948197,-0.06016469021290677,2.7644316579755794,-2.561214066171439
2.289916885995729,26.06707206420883,-0.06189553926791816,2.7063443077019866,-2.4349473434024764
2.278029766973189,25.558195220452472,-0.06323202939039999,2.6502540476280902,-2.318079625130424
2.2659210307984674,25.059796241735718,-0.06422835139614053,2.596050991495611,-2.2096505519285254
2.253650880213317,24.571526235442427,-0.06493112844755101,2.543633285275904,-2.1088188389455924
2.241271270437117,24.09305496870877,-0.06538055340718335,2.4929063645520166,-2.0148453129439123
2.2288270404752706,23.624069545939363,-0.06561134092804513,2.4437822961786027,-1.9270786503446238
2.2163568780305565,23.164273204497924,-0.06565352691104796,2.3961791926786424,-1.8449433435556795
2.2038941445057088,22.713384215670715,-0.06553314177155956,2.350020689713076,-1.7679295127868775
2.1914675820298055,22.27113487969227,-0.06527277902742191,2.3052354784810407,-1.6955842520368343
2.179101920728462,21.837270605052225,-0.06489207677619613,2.261756886151022,-1.6275042550260101
2.166818401421066,21.411549063515587,-0.06440812645955411,2.2195224984451913,-1.5633295126530815
2.154635226435661,20.9937394133255,-0.06383582075523117,2.178473819345154,-1.5027379104595544
2.142567949179182,20.583621583946474,-0.06318815036560198,2.138555963591969,-1.44544058445
2.1306298114045683,20.1809856164721,-0.062476457788224374,2.099717378243528,-1.3911779178728985
2.118832035710558,19.78563105448427,-0.06171065478030819,2.0619095900494444,-1.3397160813462468
2.1071840796414456,19.39736638072626,-0.06089940910508428,2.025086975824314,-1.2908440348981096
2.0956938567800645,19.016008495453953,-0.06005030522524416,1.98920655335792,-1.2443709237840699
2.0843679294130433,18.64138223276784,-0.05916998284866199,1.954227790706441,-1.2001238108951728
2.0732116766650486,18.273319911613513,-0.05826425660391457,1.9201124319706837,-1.157945697622628
2.062229441425374,17.91166091847648,-0.057338219603188335,1.8868243378928158,-1.1176937925518309
2.0514246589073304,17.556251319095864,-0.05639633321832109,1.8543293397978395,-1.0792379936010865
2.0407999692731607,17.206943496785463,-0.05544250503609666,1.8225951055748435,-1.0424595544275512
2.0303573164121596,16.863595815184567,-0.054480156658650636,1.79159101653982,-1.0072499102784382
2.0200980346670523,16.526072303469057,-0.05351228276353223,1.761288054149801,-0.9735096421186522
2.0100229250549404,16.19424236223808,-0.05254150262711766,1.7316586956499684,-0.9411475609381591
2.0001323223172776,15.86798048845715,-0.05157010513775673,1.7026768178334855,-0.9100798967325651
1.9904261539525097,15.547166017985866,-0.05060008817558746,1.6743176081800324,-0.8802295788396548
1.980903992230406,15.231682884350839,-0.0496331931097171,1.6465574827149823,-0.8515255961695587
1.9715651000546046,14.921419392543083,-0.04867093505661099,1.6193740099982274,-0.8239024274415477
1.962408471426202,14.616268006725704,-0.04771462945289156,1.5927458407110202,-0.7972995328814088
1.9534328671633996,14.316125150833784,-0.04676541541871217,1.5666526423618097,-0.7716608999773564
1.9446368464480066,14.020891021134926,-0.04582427632226642,1.5410750386788112,-0.7469346368705321
1.9360187946968894,13.730469409897065,-0.04489205790001951,1.5159945532986518,-0.7230726077941682
1.9275769481936442,13.444767539380926,-0.043969484239402806,1.491393557397534,-0.7000301056949964
1.9193164931767746,13.163697158490084,-0.0429826738329098,1.467242030927108,-0.6756845564187015
1.911241625772904,12.887173066780207,-0.042015930418359854,1.443537881808437,-0.652407078446314
1.9033485382758917,12.615111727418444,-0.04106920112913686,1.4202656904206292,-0.6301385202456086
1.8956334385471338,12.347432469079369,-0.040142374963052,1.3974107131485707,-0.6088236258052059
1.8880925602528813,12.08405736104999,-0.03923529129223598,1.3749588450554269,-0.5884107371978043
1.8807221715839062,11.824911095194324,-0.03834774732855509,1.3528965850041965,-0.5688515228871917
1.8735185826439196,11.569920874329966,-0.037479504671304766,1.3312110030416813,-0.5501007292934179
1.8664781516705802,11.319016306602936,-0.036630295048057385,1.3098897098744107,-0.532115953394844
1.859597290233169,11.072129305478207,-0.03579982534574595,1.2889208282806577,-0.5148574343794624
1.8528724675337018,10.829193994991535,-0.034987782017064824,1.268292966315881,-0.4982878625647668
1.846300213923083,10.590146619934341,-0.03419383493681744,1.247995192180879,-0.48237220398884556
1.8398771237305809,10.354925460667044,-0.033417640773729246,1.2280170106327595,-0.4670775392381762
1.833599857493224,10.123470752278209,-0.03265884593529107,1.208348340828659,-0.45237291522230083
1.8274651436614278,9.895724607826885,-0.0319170891362503,1.1889794955010569,-0.4382292087343471
1.8214697798481314,9.671630945423978,-0.03119200363529001,1.1699011613716481,-0.42461900075111686
1.8156106336807625,9.45113541892545,-0.03048321917911701,1.1511043807181143,-0.41151646052884927
1.8098846433083373,9.234185352025818,-0.029790363688517833,1.1325805340148625,-0.3988972386422191
1.804288817609827,9.020729675554787,-0.029113064716853806,1.1143213235749359,-0.3867383681959168
1.7988202361444774,8.810718867793206,-0.02845095070787723,1.096318758125899,-0.37501817351138256
1.7934760488799524,8.60410489763677,-0.027803652076597823,1.0785651382576218,-0.36371618565689845
1.7882534757299307,8.400841170447261,-0.027170802134155965,1.061053042684566,-0.3528130642481356
1.78314980592904,8.200882476441627,-0.02655203787521957,1.043775315269466,-0.3422905249991547
1.7781623972696883,8.0041849414789,-0.025947000644272678,1.026725052759224,-0.33213127255142955
1.7732886752224317,7.810705980113969,-0.025355336695270188,1.0098955931874392,-0.3223189381512827
1.768526131958922,7.620404250795538,-0.024776697657463057,0.9932805049013024,-0.3128380217847082
1.763877268826587,7.433440666307252,-0.02415870373553897,0.9747572265543214,-0.3458033729057688
1.7593416637543924,7.249986334161985,-0.023584507550719745,0.9563410065537434,-0.38017136242322835
1.7549111137311544,7.070021176615523,-0.023052861114943292,0.9380290728826903,-0.41583706469072423
1.7505776556828134,6.8935256323995375,-0.022562486762329925,0.9198187609697941,-0.452697454488109
1.7463335717279755,6.720480636621929,-0.022112081183330762,0.901707510373441,-0.4906511779036914
1.7421713937052745,6.550867601262169,-0.021700319055629236,0.8836928618345469,-0.5295983261440438
1.7380839070466871,6.384668396192026,-0.02132585629792194,0.8657724546932636,-0.5694402113022029
1.7340641540662503,6.2218653306527365,-0.020987332969833,0.8479440246676978,-0.6100791431044178
1.7301054367294637,6.06244113511973,-0.02068337583844691,0.8302054019955136,-0.6514182056371745
1.7262013189650323,5.906378943485645,-0.020412600629254197,0.8125545099422239,-0.6933610330296628
1.7223456285774696,5.753662275491241,-0.02017361397666695,0.7949893636831011,-0.7358115830316858
1.7185324588164543,5.604275019332292,-0.019965015086652164,0.7775080695689963,-0.7786739073826616
1.7147561696566873,5.458201414368187,-0.019785397121423295,0.7601088247900023,-0.821851917813171
1.7110113888403697,5.315426033854923,-0.019633348313496786,0.7427899174548954,-0.8652491464556681
1.707293012733283,5.17593376762138,-0.019507452813731393,0.7255497271087007,-0.9087684993646042
1.7035962070448352,5.039709804603067,-0.01940629127519232,0.7083867257156357,-0.9523120017573038
1.6999164074623723,4.906739615141763,-0.019328441171785588,0.6912994791401815,-0.995780533484337
1.696249320250535,4.77700893295275,-0.019272476847553673,0.674286649165216,-1.0390735531206179
1.6925909228675367,4.6505037366532065,-0.01923696928927046,0.6573469960931353,-1.082088808934648
1.6889374646519657,4.527210230735893,-0.019220485611477076,0.6404793819838374,-1.1247220348418059
1.6852854676361408,4.407114825861143,-0.019221588239309882,0.623682774592489,-1.1668666292768326
1.6816317275452248,4.290204118327225,-0.019238833770332177,0.6069562520803489,-1.2084133147292162
1.6779733150453007,4.176464868564132,-0.019270771492028608,0.5902990085837699,-1.2492497754716159
1.6743075773085323,4.0658839784783645,-0.01931594152658531,0.5737103607401141,-1.289260270774637
1.6706321399694537,3.958448467455984,-0.01937287256897893,0.5571897552849449,-1.328325220640402
1.6669449095534772,3.8541454468078946,-0.019440079178142274,0.5407367778528541,-1.3663207608024537
1.6632440764670275,3.7529620924140517,-0.019516058573959223,0.5243511631349602,-1.4031182634316821
1.6595281186484314,3.654885615292091,-0.0195992868849461,0.5080328065698988,-1.4385838196600838
1.6557958059900182,3.5599032297795716,-0.01968821478256215,0.4917817777724192,-1.4725776796918195
1.6520462056550154,3.4680021189773704,-0.01978126242799487,0.4755983359349527,-1.5049536459237673
1.6482786884280054,3.3791693970536016,-0.019876813645794095,0.45948294747315327,-1.5355584141609793
1.6444929362552183,3.293392067952105,-0.019973209225649814,0.44343630622682345,-1.5642308577101014
1.640688951151111,3.2106569799861155,-0.020068739238637365,0.42745935657307754,-1.5908012489022954
1.6368670656709225,3.130950775725058,-0.020161634237031243,0.41155331985909044,-1.6150904124910248
1.633027955175654,3.054259836499835,-0.020250055186849265,0.39571972461693106,-1.6369088054699412
1.629172652146797,2.9805702207584694,-0.020332081959009672,0.3799604410816685,-1.6560555182808392
1.6253025628438285,2.909867595399291,-0.02040570017750207,0.36427772059388513,-1.6723171933052896
1.6214194866389104,2.842137159093017,-0.020468786190055783,0.3486742405247809,-1.6854668582105665
1.6175256384116266,2.7773635564792976,-0.020519089886618127,0.33315315540910273,-1.6952626745223944
1.613623674443524,2.7155307819907684,-0.020554215040777375,0.317718154996465,-1.7014466062664362
1.6097167223200923,2.656622071924051,-0.02057159678481742,0.30237352991635624,-1.7037430204500532
1.6058084154298884,2.6006197832531974,-0.020568475743645953,0.2871242455663176,-1.7018572417051718
1.6019029327518584,2.547505257584593,-0.020541868235617173,0.27197602462950876,-1.6954740992796455
1.5980050447502043,2.497258668612531,-0.020488531781793624,0.2569354382342835,-1.6842565282353419
1.5941201663634554,2.449858851498412,-0.020404924920826246,0.24201000507223513,-1.667844321829243
1.590254418300053,2.4052831128375587,-0.02028715995709409,0.2272082966209607,-1.6458531839457342
1.5864146981679665,2.3635070204107222,-0.02013094669644722,0.21254004471416393,-1.6178743068680137
1.5826087634218253,2.324504172918491,-0.0199315243155665,0.19801624467773088,-1.5834748118132076
1.5788453287923263,2.288245951632746,-0.01968357704758036,0.18364924254062567,-1.5421995533980564
1.5751341819098093,2.25470125876609,-0.019381126978916186,0.1694527876347038,-1.4935750264711847
1.5714863224812705,2.2238362519313135,-0.01901739332149011,0.15544202115241645,-1.4371164532152065
1.5679141330190327,2.1956140911330593,-0.0185846010178538,0.14163335567130886,-1.372339603702863
1.5644315934011406,2.1699947253226206,-0.01807371074943314,0.12804417917542527,-1.2987795436780363
1.5610545585450988,2.1469347607640152,-0.017474024577322497,0.1146922898625252,-1.2160193073762056
1.5578011299563772,2.126387474000232,-0.016772592146061197,0.1015949392299336,-1.1237323590727006
1.5546921706976407,2.108303056984468,-0.015953294788008946,0.08876734514654808,-1.02174328029114
1.551752043900553,2.092629204907478,-0.014995408339228461,0.07622057145334916,-0.9101104919027563
1.5490097045754996,2.079312160977217,-0.013871321398176706,0.06395883833887245,-0.7892310533115532
1.546500356495935,2.068298277054563,-0.012542868913028728,0.05197678189960926,-0.6599573133581225
1.5442680330301373,2.059535957573601,-0.010955272832211625,0.04025816000526729,-0.5236945155995412
1.5423697842706012,2.0529773940676854,-0.009026293057641393,0.028779350583304927,-0.38241775942051687
1.5408831293365886,2.048578492778063,-0.006622706247754241,0.01752487351797593,-0.23852028267252953
1.539922737245528,2.046292496203506,-0.0034866841844648487,0.00653824831945693,-0.09441469425447799
