x,y,v_x,v_y,omega
2.375,32.48,0.0,2.923076923076923,-4.448979591836735
2.37413107810269,31.930696573338565,-0.00914654628747701,2.8590644102013028,-4.189225417062255
2.3716427657215537,31.393330599196624,-0.01704621561921888,2.7974195281349274,-3.951951845880443
2.3677566042047147,30.867465809305724,-0.023860747715928773,2.7379993128219082,-3.7346161763623376
2.362665569075223,30.352691954800036,-0.02972909575240371,2.680672839869534,-3.535017522646346
2.3565380626219192,29.848622648197683,-0.03477097217710718,2.6253198612078616,-3.3512442879309985
2.349521290704827,29.35489344542433,-0.03908978484491735,2.5718296416695674,-3.1816306888781485
2.3417441286262726,28.87116013333156,-0.04277507913986585,2.520099959306939,-3.024720601947086
2.333319561238325,28.397097194307996,-0.045904577575374035,2.4700362409411096,-2.8792373659145096
2.3243467668437137,27.932396424441492,-0.048545889736322206,2.421550810285248,-2.7440584548460962
2.3149129019770545,27.47676568556922,-0.05075795096535602,2.3745622304755263,-2.6181941530505703
2.30509463413203,27.029927774673155,-0.05259223687700399,2.32899472632514,-2.500769533356257
2.294959461401933,26.5916193966102,-0.05409379186086117,2.284777674337546,-2.3910091736625647
2.284566851422847,26.161590228235546,-0.055302102655832394,2.2418451506588095,-2.2882241525066007
2.273969226639997,25.739602063682092,-0.05625184242679761,2.200135528851215,-2.1918009486284697
2.2632128185166653,25.32542803197167,-0.05697350623985284,2.1595911207322014,-2.1011919369683416
2.252338409682373,24.91885187931319,-0.05749395517375104,2.1201578546202073,-2.015907227805138
2.241381980023576,24.5196673094334,-0.05783688333989835,2.0817849862196938,-1.9355076396306616
2.230375270237701,24.127677376122534,-0.05802321966931301,2.044424838105233,-1.8595986319926519
2.2193462743057006,23.742693922888066,-0.05807147435174422,2.00803256436284,-1.7878250536065088
2.208319670613951,23.364537065216638,-0.05799803819299082,1.9725659374416398,-1.7198665848352097
2.197317200012431,22.993034711465008,-0.05781744182300879,1.9379851546807974,-1.6554337731983182
2.1863579978836247,22.628022118849813,-0.05754258058547904,1.9042526623212415,-1.5942645767066035
2.1754588862755373,22.269341481394648,-0.057184910025966956,1.8713329951015791,-1.5361213431743108
2.16463463129014,21.916841547030643,-0.05675461613610716,1.839192629782674,-1.480788164751788
2.1538981701888353,21.5703772613417,-0.05626076387762976,1.8077998511535374,-1.4280685561599873
2.1432608120573504,21.229809435703476,-0.05571142698010362,1.777124629248822,-1.3777834128276885
2.132732415345864,20.895004437792096,-0.05511380156185605,1.747138506660446,-1.3297692116007056
2.12232154515125,20.565833902638452,-0.05447430574987612,1.71781449495686,-1.2838764221276295
2.112035612724852,20.24217446258057,-0.05379866715957762,1.689126979336624,-1.2399681016060813
2.1018809993609153,19.923907494623194,-0.05309199982922845,1.6610516307410257,-1.19791864944176
2.0918631665391763,19.610918883852896,-0.05235887197854955,1.6335653247358024,-1.1576127016483597
2.0819867539530845,19.30309880168108,-0.051603365769781896,1.606646066546474,-1.1189441475971595
2.0722556668466994,19.000341497797955,-0.05082913008690556,1.5802729216969646,-1.0818152540911188
2.062673153903483,18.70254510481969,-0.05003942721011057,1.5544259517584107,-1.046135883756029
2.053241876774816,18.40961145469993,-0.04923717414427748,1.5290861547654055,-1.011822796465774
2.0439639722015075,18.121445906056586,-0.048424979258972545,1.5042354099013944,-0.9787990239957663
2.0348411075648913,17.837957181637,-0.04760517481066835,1.4798564260942495,-0.9469933093663309
2.0258811208491365,17.559059062642078,-0.04671047482885468,1.4559132475365,-0.9141774597375655
2.0170904766589555,17.28466829169264,-0.04582262190989507,1.4324106571944477,-0.8827968378632602
2.0084677727785745,17.014702595922728,-0.04494268209411552,1.4093335088046526,-0.8527721762799291
2.000011418932722,16.749082517302664,-0.04407156891485519,1.3866673187749405,-0.8240294125428604
1.9917196641538757,16.487731290209005,-0.043210060336161274,1.3643982295793762,-0.7964992929484158
1.983590621107503,16.230574725720533,-0.042358813836183444,1.342512975562404,-0.7701170104583143
1.9756222877076133,15.977541102200213,-0.04151837984686439,1.3209988509672719,-0.7448218735321721
1.9678125663173063,15.728561061756416,-0.04068921373531628,1.299843680020062,-0.7205570029240702
1.9601592807958765,15.48356751220756,-0.03987168649025962,1.2790357889152604,-0.6972690538079678
1.9526601916248247,15.242495534202224,-0.0390660942576535,1.258563979561988,-0.6749079608704354
1.945313009319332,15.005282293172453,-0.038272666852795796,1.2384175049619195,-0.653426704251829
1.9381154063089832,14.771866955821505,-0.03749157536140338,1.2185860461006988,-0.6327810944324765
1.9310650274513737,14.542190610868719,-0.036722938929223306,1.1990596902444246,-0.6129295743519885
1.9241594993244049,14.316196193794045,-0.03596683082834212,1.1798289105416304,-0.5938330372203215
1.9173964384272693,14.093828415342863,-0.03522328387834924,1.1608845468392297,-0.5754546586312005
1.910773458406115,13.875033693568454,-0.03449229529169733,1.1422177876282065,-0.5577597417241311
1.9042881764079442,13.659760089204834,-0.033773831004835976,1.1238201530414886,-0.5407155742624183
1.8979382186552496,13.447957244176806,-0.03306782954984359,1.1056834788324985,-0.5242912966029971
1.8917212253240674,13.239576323067219,-0.03237420551523294,1.0877999012684159,-0.508457779630961
1.8856348547993906,13.034569957373382,-0.03169285263925861,1.0701618428772275,-0.4931875118187038
1.8796767873741003,12.832892192395779,-0.03102364657432409,1.0527619989922627,-0.47845449464770673
1.873844728450634,12.63449843661251,-0.03036644735689778,1.0355933250421312,-0.4642341457011861
1.8681364112984338,12.439345413402414,-0.029721101613634494,1.0186490245378472,-0.45050320879895084
1.8625495994146832,12.247391114988634,-0.029087444531106177,1.001922537712472,-0.43723967060265617
1.8570820885309343,12.058594758482624,-0.028465301613622013,0.9854075307718557,-0.424422683170873
1.8517367937089886,11.873125011086337,-0.027800959670014995,0.9669055997153816,-0.455632400519956
1.8465136160660713,11.691160451466704,-0.027179857623852034,0.9485108173333756,-0.48825540484507046
1.8414044570074968,11.51268098465306,-0.02660076404535247,0.9302204122839485,-0.5221850231661814
1.8364014549226726,11.337667031856558,-0.026062415794901938,0.9120317224160552,-0.557316482436831
1.8314969908190861,11.166099510037007,-0.025563522137586645,0.8939421914739345,-0.5935466758369354
1.826683693213376,10.99795981205984,-0.02510276844883588,0.8759493661804779,-0.6307739319281515
1.8219544423546898,10.833229787371625,-0.02467881953733373,0.8580508936954568,-0.6688977856779657
1.8173023738508385,10.67189172312306,-0.024290322608470496,0.840244519447324,-0.7078187503472078
1.8127208817635965,10.513928325668243,-0.023935909888814583,0.8225280853402174,-0.7474380892162983
1.8082036212358688,10.35932270236854,-0.02361420092937239,0.8048995283408629,-0.7876575860978419
1.8037445107103178,10.208058343628093,-0.02332380460274148,0.7873568794533443,-0.8283793135466948
1.799337733796428,10.06011910508617,-0.023063320806625986,0.76989826309323,-0.8695053976328022
1.7949777408408616,9.915489189889058,-0.022831341883545932,0.7525218968763787,-0.9109377780862558
1.7906592502543537,9.774153130960816,-0.02262645376390622,0.7352260918419489,-0.9525779625573969
1.78637724964728,9.63609577318812,-0.02244723683686727,0.7180092531337743,-0.994326773656509
1.7821269968254665,9.501302255429316,-0.022292266550645767,0.7008698811694417,-1.0360840873467307
1.777904020697766,9.36975799225166,-0.02216011374093698,0.6838065733321858,-1.077748561159202
1.7737041221474872,9.241448655293517,-0.022049344683052394,0.6668180262272296,-1.1192173505799468
1.7695233749208907,9.116360154139532,-0.02195852086006722,0.6499030385515616,-1.1603858118223673
1.7653581265877905,8.994478616586857,-0.02188619843572686,0.6330605146344884,-1.2011471890461765
1.7612049996317793,8.875790368168577,-0.021830927417019353,0.6162894687158236,-1.241392283911857
1.7570608927308857,8.76028191078683,-0.021791250487126577,0.5995890300394235,-1.2810091051681116
1.7529229822935473,8.647939900292126,-0.021765701484857635,0.5829584488522123,-1.3198824957572652
1.7487887243198363,8.538751122826927,-0.021752803501572732,0.5663971034130622,-1.357893734689599
1.744655856663897,8.432702469730124,-0.021751066560944603,0.5499045081322232,-1.3949201106821425
1.7405224017807517,8.329780910774396,-0.02175898484058597,0.5334803229807062,-1.430834464281569
1.7363866700490844,8.229973465479834,-0.02177503338749056,0.5171243643304858,-1.4655046948970658
1.732247263771502,8.133267172214396,-0.021797664271270795,0.5008366174109549,-1.498793228862291
1.7281030819652636,8.03964905475382,-0.0218253021101862,0.48461725059512045,-1.530556444334013
1.7239533260697923,7.949106085929991,-0.021856338894775375,0.4684666317609628,-1.5606440485320556
1.7197975067126672,7.861625147946796,-0.02188912802233081,0.45238534700951655,-1.5888984025512227
1.7156354516935326,7.7771929888850195,-0.021921977442243872,0.4363742220618172,-1.6151537887619734
1.711467315365796,7.695796174852465,-0.021953141797088183,0.42043434670192315,-1.6392356157089076
1.707293589619526,7.617421037160948,-0.021980813426805704,0.404567102682467,-1.6609595554826426
1.7031151166960965,7.5420536138277505,-0.022003112082980208,0.38877419556171594,-1.6801306088809624
1.6989331040964744,7.4696795846048545,-0.02201807317619941,0.3730576909950869,-1.6965420944343454
1.6947491418814014,7.400284198634992,-0.022023634350885724,0.3574200560561074,-1.7099745587600377
1.6905652227040826,7.333852193720073,-0.022017620147206773,0.3418642062062041,-1.720194608034068
1.6863837649657807,7.270367706067283,-0.021997724466496133,0.32639355856000174,-1.7269536640766685
1.6822076395438161,7.209814169255733,-0.02196149050155265,0.31101209208788616,-1.7299866542793612
1.6780402006126902,7.152174201050414,-0.021906287720823984,0.2957244153365324,-1.7290106533005074
1.6738853211664755,7.097429476594549,-0.021829285397228615,0.2805358420936476,-1.7237235074868458
1.669747433960466,7.045560586459466,-0.021727422034448357,0.2654524751177436,-1.7138024923314397
1.665631578732052,6.99654687805992,-0.021597369843595327,0.2504812975090454,-1.698903081851502
1.6615434567500613,6.9503662791105185,-0.021435493124728516,0.235630270379388,-1.6786579507775663
1.6574894940028915,6.906995102195921,-0.021237798950743535,0.220908433984786,-1.6526763919965222
1.6534769147081074,6.866407830291632,-0.02099987783645649,0.20632600711299595,-1.6205444215733562
1.6495138273744763,6.828576884412129,-0.020716830938607655,0.19189447582914765,-1.5818259743679501
1.6456093264778708,6.7934723767887455,-0.020383178499344356,0.17762665704856836,-1.5360657820685393
1.641773614100562,6.761061856541353,-0.019992741261800964,0.1635367139766197,-1.4827947953812837
1.6380181479192888,6.7313100603370835,-0.019538481698969604,0.14964008817360605,-1.4215393912909322
1.634355825190232,6.704178688860079,-0.019012283870048576,0.135953295794855,-1.3518361231759866
1.6308012176553637,6.6796262420275525,-0.0184046375496179,0.12249351296858531,-1.273254438966032
1.6273708808633929,6.657607962625814,-0.017704170786916967,0.10927784915497316,-1.185430566312694
1.6240837753073711,6.638075959311269,-0.016896940329101023,0.0963221857349793,-1.0881164473934026
1.6209618592562087,6.620979602735602,-0.01596533389366006,0.08363946242993464,-0.9812476544875876
1.6180309492771232,6.60626630288181,-0.014886350096713963,0.07123737813628384,-0.8650323940432878
1.6153220027324082,6.593882756851219,-0.01362887668976036,0.059115737975184914,-0.7400576607543254
1.6128730746604654,6.583776653543765,-0.012149313541216683,0.04726429684010355,-0.6073949173448032
1.6107323905159556,6.575898544798047,-0.010384203769413616,0.035663163641140486,-0.46866404632525843
1.6089634494527691,6.570202985939165,-0.008236228474653292,0.024290087504969384,-0.32598609764761366
1.6076547255434162,6.566646665583857,-0.005539812676431584,0.013144863603545302,-0.1817429604757934
1.606945412431976,6.565175820146099,-0.0019266411282005957,0.0023377199517896855,-0.0381068096535222
