x,y,v_x,v_y,omega
2.375,32.48,0.0,2.3076923076923075,-7.020408163265306
2.3738692747045054,32.02303813041873,-0.011307252954945161,2.2619263881203633,-6.66911119891952
2.370610858026406,31.57507985675953,-0.021276913826049612,2.21765634847165,-6.343422598137512
2.365477318241128,31.135834802628356,-0.030058484026733133,2.174794192840061,-6.040843144034831
2.3586931772323805,30.705029412051076,-0.037782926060738416,2.1332597129327406,-5.759170388323491
2.350458355490181,30.282405488273824,-0.04456529136125857,2.0929795248397816,-5.4964573093804
2.3409511344437455,29.86771891006174,-0.050506919103096445,2.0538862572810723,-5.250977618178324
2.3303307138790177,29.4607384980098,-0.055697286544181636,2.0159178632383163,-5.0211964922974825
2.318739427801116,29.061245008411788,-0.060215574234832446,1.9790170327418108,-4.805745770644912
2.306304670744125,28.66903023622737,-0.06413199633507638,1.9431306891023574,-4.6034028357814725
2.293140577488735,28.28389621187812,-0.06750893621882649,1.9082095543901558,-4.41307256159428
2.279349491892519,27.90565447916827,-0.07040191974333401,1.8742077727083517,-4.233771822127365
2.2650232546719646,27.534125443700464,-0.07286045246220658,1.8410825819696768,-4.064616150521604
2.250244335200686,27.16913778284397,-0.07492874225058202,1.8087940265952815,-3.9048082110116527
2.2350868284766814,26.81052790969274,-0.07664632498946485,1.7773047049170116,-3.7536278061130153
2.219617335187966,26.458139484585537,-0.07804860789768983,1.7465795461550264,-3.6104231887705116
2.203895740134655,26.111822968697975,-0.07916734263541567,1.716585612720575,-3.4746034878106657
2.1879759020406726,25.771435214995513,-0.080031038304413,1.687291924304047,-3.345632086444578
2.171906265926241,25.436839092486515,-0.08066532283989968,1.658669300785958,-3.223020819270218
2.1557304076471486,25.10790314025988,-0.08109325995102538,1.630690221480384,-3.106324874362563
2.1394875188856504,24.784501248251075,-0.08133562766395867,1.6033286986076551,-2.99513830450709
2.1232128397585237,24.46651236206906,-0.08141116360730595,1.5765601632124646,-2.889090066127811
2.106938045255947,24.153820209547014,-0.08133678141846086,1.550361362008003,-2.787840516540279
2.0906915909127926,23.846313046961548,-0.08112776201308565,1.5247102638466867,-2.691078310264701
2.074499022418916,23.543883423106703,-0.08079792292568183,1.499585974701749,-2.59851764361832
2.0583832532784445,23.246427959616724,-0.08035976847902958,1.4749686601980134,-2.509895803954233
2.0423806333713617,22.95385594833664,-0.0796664305917985,1.4507514526028678,-2.419986061467829
2.0265228109920073,22.66607990991045,-0.07891179320174574,1.427008931659004,-2.334180678906512
2.0108212839125987,22.38300663625499,-0.07810347759234097,1.4037238048955984,-2.2522433425803836
1.9952861004182878,22.104546295487115,-0.07724835735076799,1.380879602783157,-2.173953951491589
1.9799260015118565,21.830612272389466,-0.07635263171354464,1.3584606281933278,-2.099107324603017
1.9647485492088843,21.561121018602876,-0.07542189131617717,1.3364519096725767,-2.0275120254437065
1.9497602423581557,21.295991911817246,-0.07446117719110873,1.3148391581837164,-1.9589892920956684
1.934966621263363,21.03514712329826,-0.07347503375681927,1.2936087270061576,-1.8933720619600858
1.9203723622424067,20.778511493145835,-0.07246755645274416,1.2727475745180947,-1.8305040818852476
1.9059813631373492,20.526012412732793,-0.07144243459782905,1.252243229612311,-1.7702390952772007
1.8917968206792217,20.277579713819325,-0.07040298998344517,1.2320837595223717,-1.7124400987265898
1.8778213005156064,20.03314556388127,-0.06935221165270916,1.2122577398581644,-1.6569786614882867
1.8640568006236513,19.79264436722852,-0.0682927872668424,1.192754226669379,-1.603734301858503
1.8505048087555578,19.556012671524282,-0.06722713141409249,1.173562730372963,-1.552593915119438
1.8371663544964394,19.323189079347376,-0.06615741117709191,1.154673191396093,-1.5034512482746918
1.824042056454767,19.094114164467765,-0.06508556923963141,1.136075957400024,-1.4562064172887847
1.8111321650524972,18.86873039253151,-0.0640133447830662,1.1177617619625233,-1.410765462978988
1.7984366013346484,18.646982045874495,-0.06294229239542354,1.0997217046076329,-1.3670399420941255
1.7859549921758773,18.42881515220559,-0.06187379919228579,1.0819472320814025,-1.324946550458881
1.7736867022239198,18.214177416919338,-0.06080910032728985,1.0644301207811204,-1.2844067753686021
1.7616308628860637,18.00301815881587,-0.05974929305127183,1.0471624602535552,-1.245346574693026
1.7497863986346966,17.795288249022022,-0.05869534946239873,1.0301366376849252,-1.2076960803916779
1.7381520508809756,17.59094005292235,-0.05764812807481043,1.0133453233118008,-1.1713893243622564
1.7267263996414823,17.389927374922365,-0.05660838432012139,0.9967814566880159,-1.1363639847390934
1.7155169389990061,17.192398232626225,-0.055486222104640555,0.9785099662733919,-1.1405586332622832
1.7045281056771882,16.99851097180403,-0.05440211111354055,0.9603626419485435,-1.1469822044761497
1.6937523340116012,16.808241110535562,-0.053355605542329564,0.9423359707361522,-1.1555005330695636
1.68318215702231,16.62156485451483,-0.05234616435058218,0.9244265894711846,-1.1659830440766297
1.6728102246042353,16.438459067689855,-0.051373159830165015,0.9066312787785763,-1.178302450813523
1.6626293200736872,16.25890124405418,-0.0504358854753144,0.888946957578195,-1.192334462441689
1.6526323752057785,16.082869480486675,-0.04953356320377304,0.8713706780968653,-1.2079574999194822
1.6428124838879974,15.910342450539932,-0.04866534997403691,0.8538996213705771,-1.2250524191414853
1.6331629145066069,15.741299379080544,-0.047830343839869845,0.8365310932232933,-1.2435022400933942
1.6236771211746617,15.575720017687011,-0.04702758947958098,0.8192625207120394,-1.2631918808706875
1.6143487539032937,15.413584620712683,-0.04625608323409986,0.8020914490312457,-1.284007895421418
1.6051716678114236,15.254873921922293,-0.04551477768459982,0.785015538872656,-1.305838213877421
1.5961399314632352,15.099569111610972,-0.0448025857972848,0.7680325642405518,-1.3285718843339958
1.5872478344175125,14.947651814114355,-0.044118384659943416,0.7511404107256203,-1.3520988149256041
1.5784898940683219,14.799104065617339,-0.04346101883196178,0.7343370742445483,-1.3763095150241582
1.5698608618524608,14.653908292167241,-0.04282930332664868,0.7176206602564198,-1.4010948343568745
1.561355728895602,14.51204728779447,-0.04222202624193838,0.7009893834712752,-1.426345698802167
1.5529697311661308,14.373504192640262,-0.04163795105277242,0.6844415680708172,-1.4519528415743868
1.544698354203284,14.238262470986552,-0.041075818575696255,0.6679756484662962,-1.4778065284510864
1.5365373374843732,14.106305889077507,-0.040534348613412666,0.6515901706241382,-1.5037962756296281
1.5284826784946137,13.977618492615495,-0.040012241284182765,0.6352837939959912,-1.5298105587231454
1.5205306365623925,13.852184583806231,-0.03950817803802717,0.6190552940966314,-1.5557365113189912
1.5126777365227277,13.729988697818499,-0.039020822358621685,0.602903565780711,-1.5814596114259274
1.5049207722722087,13.611015578512653,-0.038548820146567964,0.5868276272777421,-1.60686335402977
1.4972568102799209,13.495250153279468,-0.038090799776311406,0.5708266250541221,-1.6318289078617532
1.4896831931207566,13.382677506815899,-0.03764537181533168,0.5548998395815512,-1.6562347543608895
1.4821975431001937,13.273282853647444,-0.037211128390297415,0.5390466921029945,-1.679956306683317
1.4747977660431042,13.16705150918709,-0.03678664218059861,0.5232667525005593,-1.7028655064815137
1.4674820553235457,13.063968859098594,-0.03637046501498363,0.5075597483844109,-1.7248303960495812
1.4602488962178621,12.964020326706326,-0.03596112604185446,0.4919255755382666,-1.7457146633151932
1.4530970706698745,12.867191338164982,-0.03555712943802152,0.4763643098751718,-1.7653771570654044
1.446025662564645,12.773467285069746,-0.03515695161427291,0.46087622107719367,-1.783671369738127
1.4390340636163348,12.682833484150596,-0.03475903786882805,0.4454617881142995,-1.8004448851161647
1.4321219799863085,12.59527513365309,-0.03436179843143545,0.4301217168607645,-1.815538788357849
1.4252894397600357,12.510777265961863,-0.033963603831291385,0.41485696005148875,-1.8287870360318905
1.4185368014258302,12.429324695972245,-0.03356277951076503,0.39966873984470325,-1.8400157842561042
1.4118647635153887,12.350901964659752,-0.03315759959365009,0.38455857328023607,-1.8490426737569088
1.4052743755859574,12.275493277237583,-0.03274627970066394,0.36952830094143835,-1.855676071790041
1.3987670507473677,12.203082435229401,-0.0323269686852313,0.35458011914038307,-1.859714272561884
1.3923445799650618,12.133652761720914,-0.03189773913782882,0.33971661594448355,-1.8609446603014184
1.3860091484037524,12.067187018992481,-0.031456576475263044,0.3249408113398577,-1.859142842785278
1.3797633541173153,12.003667317681483,-0.031001366389109174,0.31025620177011926,-1.854071768374626
1.3736102294413586,11.943075016586434,-0.030529880370459058,0.2956668091803733,-1.8454808471288435
1.3675532655094174,11.885390612217599,-0.030039758948954214,0.28117723450796583,-1.8331051072218627
1.3615964403973406,11.830593617241352,-0.02952849217181345,0.2667927152544973,-1.8166644329669108
1.3557442515115377,11.778662427086847,-0.028993396686215558,0.25251918629054515,-1.7958629520188159
1.3500017529879556,11.72957417422747,-0.028431588549606056,0.23836334230323972,-1.7703886692206878
1.344374599079372,11.683304570079095,-0.02783995053622921,0.22433269918050172,-1.7399134864727896
1.3388690948087063,11.63982773516394,-0.027215092170427873,0.2104356499710528,-1.7040938065258084
1.333492255601856,11.599116019302503,-0.026553299898074558,0.19668150864333844,-1.6625719998705466
1.3282518782569375,11.561139815298514,-0.025850473551110843,0.18308053139654376,-1.6149791257990933
1.32315662656936,11.5258673721195,-0.025102043324663825,0.16964390039360788,-1.5609394507641272
1.318216136387024,11.493264617269695,-0.0243028584986957,0.15638364810443822,-1.5000775094215513
1.3134411470842762,11.463295003290522,-0.023447034528783165,0.14331249168727653,-1.4320287134806535
1.3088436698259835,11.435919400506894,-0.022527738054142023,0.1304435361490235,-1.3564548270283
1.30443720816195,11.411096067520099,-0.021536878586194123,0.1177897937189195,-1.2730659618169042
1.3002370543643056,11.388780742260288,-0.020464659390249936,0.10536345887917783,-1.181651004793246
1.2962606968351678,11.368926908060722,-0.0192989159011286,0.09317488311648282,-1.0821183451956504
1.2925283918158175,11.35148629676436,-0.01802413429237438,0.08123122984714944,-0.9745479587085025
1.2890639795087513,11.336409684463732,-0.016619988778287766,0.06953489315912606,-0.8592535205142445
1.2858960660607135,11.323647996170344,-0.015059145702090587,0.05808198977475952,-0.7368481001156908
1.2830597621097932,11.31315363150053,-0.013303893807113125,0.0468616569233789,-0.6082981258205715
1.28059930793433,11.304881705060424,-0.011300647947517367,0.03585760747765999,-0.4749383934048619
1.2785722764484952,11.298790474805312,-0.00896966691083198,0.025054695073450838,-0.3384108797431741
1.277057264850073,11.294839304511044,-0.006180449073390071,0.01445700786923088,-0.20049163267738215
1.2761728243530297,11.29297898591636,-0.0026639558970439105,0.0041461780776191216,-0.0627985039696507
