x,y,v_x,v_y,omega
2.375,32.48,0.0,3.7435897435897436,-5.795918367346939
2.37366876541454,31.814629261029967,-0.014791495394001234,3.6494184671883585,-5.393588335844798
2.3698871632365632,31.165829008776637,-0.027226306583517643,3.5594732245153278,-5.03334361533135
2.3640468570395647,30.532865870110594,-0.037665984494243444,3.4734505384407055,-4.7095059480877834
2.356479847084781,29.915058353072496,-0.04641190389223904,3.3910774286492456,-4.4173013660368605
2.347468309236606,29.311771728360903,-0.053716294420819544,3.3121072903684787,-4.1526962858026835
2.3372526488020995,28.722413587908985,-0.059791043740365195,3.236316492430617,-3.9122667965120517
2.3260381257631044,28.146429964933645,-0.06481476780402255,3.163501540628702,-3.693093711615506
2.314000329639916,27.583301924111385,-0.06893852245362678,3.093476690729742,-3.492677780000943
2.3012897228369935,27.03254254885616,-0.07229044202329081,3.0260719232172004,-3.3088707871887877
2.2880354258022657,26.493694266678894,-0.07497952502924181,2.96113121208574,-3.139819266329206
2.274348382143381,25.966326464441853,-0.07709873784725213,2.898511034992524,-2.983918278521508
2.2603240144322263,25.450033353797014,-0.07872757005446958,2.838079083283435,-2.8397732805652263
2.2460444599255966,24.944432053800337,-0.07993414668585644,2.779713138901875,-2.7061685236098523
2.2315804584542205,24.449160863047595,-0.080776980773882,2.7233000916841625,-2.5820407526047853
2.2169929512528705,23.963877697994846,-0.08130643257445082,2.668735075568565,-2.46645722877321
2.2023344387434967,23.488258677638612,-0.08156592864081104,2.615920706167388,-2.3585972936705306
2.1876501366499252,23.02199683761164,-0.08159298350998247,2.564766405243434,-2.2577368471093915
2.1729789628639464,22.564800959131514,-0.08142005855644789,2.5151878000912786,-2.1632352322862163
2.1583543818492266,22.116394500221627,-0.08107528605155376,2.4671061877963436,-2.07452411728902
2.1438051287902993,21.67651461828539,-0.08058308126985904,2.4204480559396644,-1.9910980384400667
2.1293558319572385,21.24491127451541,-0.07996466131970603,2.375144652615629,-1.9125063319189055
2.115027548696224,20.821346411807355,-0.07923848602489657,2.3311315996961124,-1.838346229106071
2.10083822794099,20.40559319886075,-0.07842063347770736,2.288348544155052,-1.768256930615874
2.086803110066029,19.997435334016842,-0.07752512068852449,2.2467388429994575,-1.7019145060091505
2.0729350731866796,19.596666403130058,-0.07656417797091443,2.2062492779647895,-1.6390274922210564
2.0592449335875243,19.203089286414993,-0.07554848424192188,2.166829796647073,-1.5793330850009433
2.045741706775786,18.81651560977067,-0.07448736922183394,2.128433277178758,-1.5225938350819306
2.0324328346676808,18.436765236571382,-0.07338898753489297,2.091015313924383,-1.4685947751205193
2.0193243835883474,18.06366579633938,-0.0722604689021452,2.0545340219868082,-1.4171409152616827
2.006421217071874,17.697052247087974,-0.07110804794756118,2.0189498585843113,-1.3680550549626762
1.99372714686413,17.33676646845224,-0.06993717658292552,1.9842254595905566,-1.321175866825705
1.9812450650389182,16.98265688301344,-0.06875262147498096,1.9503254897294255,-1.2763562149478829
1.968977059721987,16.634578103479704,-0.06755854871314346,1.9172165050898378,-1.2334616759402854
1.9569245165651274,16.292390603611768,-0.06635859747418757,1.8848668267761208,-1.192369235493468
1.9450882078134974,15.955960410984268,-0.06515594421058962,1.8532464246405622,-1.1529661373345932
1.9334683705549005,15.625158819852278,-0.06395335866270842,1.8223268101593235,-1.1151488647615577
1.922064775522868,15.299862122552742,-0.06275325280432244,1.792080937613272,-1.078822237758655
1.910876787640161,14.979951358013437,-0.06155772367019878,1.7624831128234664,-1.0438986110835435
1.8999034193307884,14.665312076070144,-0.06036859087838556,1.7335089087686926,-1.010297160738256
1.8891433774927093,14.35583411640767,-0.05918742954471457,1.7051350874809932,-0.9779432479567118
1.8785951049066572,14.051411401043563,-0.05801559918919931,1.6773395276757768,-0.946767851306475
1.868256816756055,13.751941739366327,-0.05685426915082323,1.65010115762685,-0.9167070587537446
1.8581265328464127,13.457326644823908,-0.05570444095631484,1.6233998928444664,-0.8877016126113387
1.8482021060378269,13.167471162433777,-0.05456696802797099,1.597216578156981,-0.8596965012077044
1.8384812473395669,12.882283706354535,-0.053442573063808584,1.5715329338345854,-0.8326405919040798
1.8289615480597181,12.601675906820955,-0.052331863378954395,1.5463315054274398,-0.8064863007663863
1.8196404993542936,12.325562465800616,-0.05123534445909547,1.5215956170207854,-0.7811892947846082
1.8105155094780092,12.053861020781437,-0.05015343194406573,1.4973093276367486,-0.7567082230391006
1.8015898883031012,11.78649345063165,-0.04902013666602146,1.4734414518053325,-0.7312493910036407
1.7928660433325958,11.523384236467944,-0.047911474117371664,1.449994261124741,-0.7068638797708969
1.784339567820709,11.264458917610408,-0.04682714268137206,1.4269537261811944,-0.6834944183461445
1.7760061127306126,11.009645505375087,-0.04576680276414464,1.4043064097668343,-0.6610873689091487
1.767861392991381,10.758874379318904,-0.04473008322731704,1.382039435301866,-0.6395924594166529
1.759901192669294,10.512078188988585,-0.043716587018091245,1.360140457257243,-0.6189625385227512
1.7521213691892903,10.269191760826686,-0.04272589609306305,1.3385976334305392,-0.5991533507382961
1.7445178567260875,10.030152009913337,-0.04175757572030229,1.3173995989399931,-0.5801233299638631
1.7370866688702091,9.794897856245576,-0.04081117823390182,1.296535441812912,-0.5618334097202718
1.7298239006615992,9.563370145277485,-0.03988624630620726,1.2759946800547528,-0.5442468485691531
1.7227257300724836,9.33551157246406,-0.03898231579507678,1.2557672400944286,-0.5273290693660606
1.715788419011429,9.111266611569683,-0.03809891821664078,1.2358434365097568,-0.5110475111223571
1.709008313912011,8.890581446518791,-0.03723558288800699,1.2162139529445923,-0.4953714923714549
1.7023818459619733,8.673403906581527,-0.03639183877907552,1.1968698241361375,-0.4802720850416482
1.6959055310221371,8.459683404701323,-0.03556721610799538,1.1778024189772522,-0.46572199793318947
1.6895759692784522,8.249370878784376,-0.03476124771072611,1.1590034245443732,-0.45169546898271945
1.6833898446654434,8.04241873578296,-0.033973470211592686,1.140464831026933,-0.43816816557478816
1.677343924094728,7.838780798415623,-0.0332034250185778,1.1221789174990073,-0.42511709222898486
1.6714350565182667,7.638412254377663,-0.03245065916432784,1.1041382384783398,-0.4125205050530035
1.66566017185245,7.441269607904637,-0.03171472601141114,1.0863356112219513,-0.4003578324075642
1.6600162797859834,7.247310633560648,-0.030995185838218177,1.0687641037112583,-0.3886096012791783
1.654500468491744,7.056494332131162,-0.030291606319998048,1.0514170232830418,-0.37725736890186695
1.6491099032603374,6.8687808885077715,-0.0296035629178525,1.0342879058657393,-0.36628365920965983
1.643841825070898,6.684131631459348,-0.02893063918703126,1.0173705057834226,-0.3556719037384733
1.6386935491127539,6.502508995190517,-0.028272427014566722,1.000658786092474,-0.3454063866292078
1.6336624632698813,6.323876482594535,-0.027628526795131426,0.9841469094184198,-0.33547219341398415
1.628751728993411,6.148423976549783,-0.02693518738786966,0.96532537996773,-0.37573051102675287
1.623961334000223,5.976350291693777,-0.026291423647553602,0.9466044517656875,-0.4170849199360105
1.6192825116312235,5.807637542023777,-0.025695491563551005,0.9279816556787528,-0.4594353447839832
1.6147068090378662,5.642268277248196,-0.025145648362640716,0.9094546196054856,-0.5026829644296902
1.6102260867918332,5.480225465520402,-0.02464015437106033,0.8910210662589007,-0.5467299903470348
1.6058325181838011,5.32149247654009,-0.02417727460707273,0.8726788113001099,-0.5914794453474165
1.6015185882585017,5.166053064958724,-0.023755280118476017,0.8544257618261718,-0.6368349416247573
1.597277092630895,5.0138913540247465,-0.02337244907715415,0.8362599152180277,-0.6827004570901197
1.5931011361263099,4.864991819402942,-0.02302706764045783,0.8181793583575678,-0.7289801089235742
1.5889841312858484,4.719339273100395,-0.022717430586893045,0.8001822672262954,-0.7755779232220583
1.584919796777215,4.576918847428868,-0.02244184173125351,0.7822669069017932,-0.8223975995629297
1.5809021557504281,4.437715978930196,-0.022198614121936286,0.7644316319723149,-0.8693422692329228
1.5769255341775907,4.301716392187192,-0.021986070020699078,0.7466748873943835,-0.9163142457903414
1.572984559216101,4.168906083437594,-0.02180254066252222,0.7289952098233747,-0.9632147665334788
1.5690741576353293,4.039271303902741,-0.021646365790494716,0.7113912294527811,-1.0099437233392927
1.5651895543479906,3.9127985427356045,-0.021515892957715273,0.693861672404305,-1.0563993812119556
1.561326271089142,3.789474509484574,-0.021409476585045082,0.6764053637182437,-1.102478082739676
1.5574801252880768,3.669286115959757,-0.02132547676012415,0.6590212310019467,-1.1480739364986488
1.5536472291813272,3.5522204573772562,-0.02126225775931651,0.6417083088036204,-1.1930784872636326
1.5498239892186776,3.4382647926438636,-0.021218186270124974,0.6244657437896183,-1.2373803656839766
1.5460071058185318,3.3274065236293744,-0.02119162928704918,0.6072928008158059,-1.2808649148605464
1.5421935735343073,3.219633173256142,-0.021180951648779096,0.5901888699978959,-1.3234137910118426
1.5383806816998127,3.114932362215143,-0.02118451317893804,0.5731534749020838,-1.3649045351460425
1.5345660156289487,3.013291784094296,-0.021200665386220577,0.5561862819962328,-1.405210112359948
1.5307474584536545,2.9146991786775125,-0.021227747672604633,0.5392871115235961,-1.444198415067387
1.526923193693999,2.8191423031416427,-0.021264082990229874,0.522455949986059,-1.4817317261219698
1.5230917086658242,2.7266089008421694,-0.021307972878382687,0.5056929644525451,-1.5176661374487133
1.5192517988446217,2.6370866673367495,-0.02135769180164365,0.4889985189410162,-1.5518509194467396
1.5154025733196144,2.550563213247674,-0.021411480698436104,0.4723731931598351,-1.5841278360883584
1.5115434614895402,2.4670260235090034,-0.02146753963572277,0.4558178039365184,-1.614330400345063
1.5076742211718133,2.3864624124808778,-0.021524019450132097,0.439333429709311,-1.642283064358707
1.5037949483198831,2.308859474341183,-0.0215790122379787,0.42292143850950703,-1.6678003387066458
1.4999060885702273,2.234204028082573,-0.021630540535977225,0.4065835199194919,-1.6906858352719099
1.4960084508710652,2.1624825563501595,-0.02167654501026817,0.39032172155174727,-1.7107312287542484
1.492103223480294,2.0936811372515614,-0.021714870442744786,0.3741384906548956,-1.7277151329363372
1.4881919926612146,2.0277853681567635,-0.021743249769247852,0.35803672150953164,-1.7414018897307246
1.4842767644526038,1.9647802803820085,-0.021759285881985547,0.34201980932108683,-1.7515402721844153
1.4803599899462299,1.9046502435228554,-0.021760430855502198,0.32609171133616605,-1.7578621076034537
1.47644459457241,1.8473788580732524,-0.021743962186940587,0.3102570158816526,-1.76008083464689
1.4725340119761086,1.792948834851181,-0.021706955549744226,0.2945210199191474,-1.7578900198958003
1.4686322231676316,1.7413418596662424,-0.021646253433330976,0.2788898154690671,-1.7509618768832185
1.4647438017612178,1.6925384416412577,-0.021558428860155306,0.2633703848085427,-1.738945856589537
1.4608739662844412,1.646517743687948,-0.021439743104029896,0.24797070356156464,-1.7214674169368531
1.4570286407716613,1.6032573939132746,-0.02128609592685977,0.23269984949035222,-1.698127135652918
1.4532145251786752,1.5627332773179532,-0.021092966217427758,0.2175681126798762,-1.6685004144421303
1.4494391776272697,1.524919308225254,-0.020855339909302488,0.20258709946122208,-1.6321381448087722
1.4457111111966876,1.4897871857229,-0.020567620430496657,0.1877698172315977,-1.5885688842364825
1.4420399090722897,1.4573061374223144,-0.020223514285037658,0.17313071944157618,-1.5373033491461474
1.4384363635866024,1.4274426616248341,-0.019815880000376953,0.1586856783081923,-1.4778423982892375
1.434912647455648,1.4001602853385435,-0.019336521454669915,0.14445183598392167,-1.4096901912183348
1.431482530006191,1.37541936652363,-0.018775894650407285,0.13044726195957318,-1.3323748881737678
1.428161658530768,1.3531769845074066,-0.018122677298740595,0.11669031599844543,-1.2454800972572506
1.424967936922366,1.3333869832064202,-0.01736311835016758,0.10319858734584997,-1.1486911395213872
1.4219220533455383,1.3160002560577126,-0.01648003250347488,0.08998726986202489,-1.0418606654627824
1.4190482405042761,1.3009653823150948,-0.015451221288328529,0.07706688283374284,-0.9250971618890471
1.4163754035733116,1.2882297222159131,-0.014246966833500189,0.06444045160160951,-0.7988752544876927
1.4139388362628655,1.2777410105390778,-0.012826003282566584,0.05210078925212392,-0.6641548259776162
1.4117829014706067,1.2694492734729295,-0.011128827742529098,0.040029622593964434,-0.5224731043918958
1.409965409570007,1.2633083949184432,-0.009065526708579713,0.028202361344777653,-0.3759419364993326
1.4085655570473237,1.2592755648494887,-0.006488390210123097,0.016606861643592274,-0.22705885047088614
1.4077025799570089,1.2573034106212475,-0.003100244126709014,0.005305963114644284,-0.0782601819137976
