x,y,v_x,v_y,omega
2.375,32.48,0.0,3.230769230769231,-4.938775510204081
2.373667457885939,31.81013573024483,-0.012690877276771883,3.1488904811847442,-4.593509387873305
2.3698837009816716,31.15707782552578,-0.023344902763868067,3.070708611377641,-4.284599646183194
2.3640434299854145,30.520077965943983,-0.032276725771913976,2.995956717972809,-4.007108736731187
2.3564808043447663,29.89844105438275,-0.03974828032950012,2.924394820705596,-3.7568904213713368
2.3474794915659216,29.2915199455523,-0.04597850804044907,2.8558062157748774,-3.530445487883399
2.3372808820579025,28.69871087389044,-0.051151106321636164,2.789994466719015,-3.3248068462057376
2.326090837890178,28.119449460802137,-0.05542074289478956,2.7267808960267206,-3.1374473969554217
2.314085262604636,27.553207206855827,-0.05891806934846344,2.6660024748905475,-2.9662056936438814
2.3014147176304283,26.999488393511392,-0.06175378754875465,2.607510033151701,-2.8092256115683756
2.2882082637021823,26.457827333435898,-0.06402196414882691,2.5511667294720364,-2.66490711750693
2.2745766692806546,25.927785919659698,-0.06580274462762689,2.49684673506322,-2.531865892645178
2.2606150996532453,25.4089514325822,-0.06716458515722558,2.444434094246277,-2.4089000575786566
2.246405378202409,24.90093457075943,-0.06816609532692484,2.393821732637245,-2.2949626257726092
2.232017893834269,24.403367676934135,-0.06885756532203081,2.3449105895084177,-2.189138601242305
2.2175132146841596,23.915903135226955,-0.06928223610758018,2.297608855321877,-2.0906258596291907
2.2029434571520197,23.438211919033243,-0.06947735943661229,2.2518312989039493,-1.9987191254853367
2.1883534504544593,22.969982272144442,-0.06947508530205972,2.207498671465555,-1.9127964943708888
2.173781729742295,22.51091850807135,-0.06930320719474073,2.164537176849643,-1.8323080551829087
2.159261385060291,22.060739914593235,-0.06898578977672667,2.1228779991324154,-1.756766252611735
2.1448207887391666,21.619179752272103,-0.06854369899588529,2.082456880116462,-1.68573769677661
2.130484219989683,21.185984337117468,-0.06799505099919761,2.0432137404038664,-1.618836180736652
2.1162724023430814,20.760912198813564,-0.0673555932541496,2.0050923386809143,-1.5557167096215612
2.1022029670160327,20.343733306966392,-0.0666390289082222,1.9680399646255076,-1.4960703798224995
2.0882908531643194,19.934228358723605,-0.06585729348904758,1.9320071614962828,-1.439619974764129
2.0745486542425,19.532188121891057,-0.0650207914806603,1.8969474750041648,-1.3861161665954167
2.060986918238602,19.137412828335755,-0.06413859903265405,1.8628172255225015,-1.3353342317466792
2.047614408348875,18.749711613042834,-0.06321863801236433,1.8295753010767508,-1.2870712035342948
2.03443832965376,18.368901994697225,-0.0622678257506324,1.7971829688814236,-1.2411433975085613
2.0214645265169606,17.994809394100262,-0.0612922041236512,1.7656037034706227,-1.197384255554482
2.0086976547259923,17.627266687116595,-0.06029705102842613,1.7348030297071517,-1.1556424632840434
1.9961413318014103,17.26611378918551,-0.05928697682473653,1.7047483791603157,-1.115780302332899
1.9837982684038582,16.911197268729122,-0.05826600791385435,1.6754089585195695,-1.077672205060054
1.9716703833475688,16.5623699870538,-0.05723765928890284,1.6467556288644425,-1.041203484060119
1.9597589043730081,16.219490762574882,-0.056204997611673566,1.6187607947443217,-1.0062692130069775
1.9480644565294745,15.882424057402272,-0.05517069613626603,1.5913983021376745,-0.9727732387955513
1.9365871397618333,15.551039684509341,-0.0541370826031748,1.5646433444616716,-0.9406273078488782
1.9253265970769926,15.22521253387221,-0.05310618106197467,1.5384723758919707,-0.9097502919040937
1.9142820744791522,14.904822316113854,-0.0520797484412658,1.5128630313304436,-0.8800675006594016
1.9034524737033158,14.58975332231929,-0.05105930656669991,1.4877940524273157,-0.8515100704173173
1.8928510072707747,14.279896197704677,-0.049907040409883585,1.4632261819975791,-0.8200586737502655
1.8824892283772166,13.975145599065229,-0.04877656810019311,1.4391604717114483,-0.7900924548771584
1.8723625279562581,13.675398007369502,-0.04766819781369777,1.4155784968192942,-0.7615233049902069
1.8624662448390632,13.380553681429273,-0.04658211758815617,1.3924627026114684,-0.7342693347931406
1.8527956892270196,13.090516480603554,-0.045518412050354784,1.3697963528715829,-0.7082543660139367
1.843346162872284,12.805193697945484,-0.04447707704236672,1.347563481967168,-0.6834074700168754
1.8341129763795077,12.524495903059602,-0.043458032412643816,1.3257488502793382,-0.659662548650172
1.825091463989879,12.248336793996668,-0.0424611332028682,1.3043379027009783,-0.6369579530183374
1.8162769961632874,11.976633057567483,-0.0414861794313369,1.2833167299579178,-0.6152361363528298
1.8076649902349957,11.70930423750626,-0.0405329246476322,1.262672032529934,-0.5944433375796452
1.7992509193888557,11.446272609958925,-0.03960108341084418,1.242391086968504,-0.5745292925561042
1.7910303201591806,11.187463065812473,-0.03869033782415602,1.2224617144262786,-0.5554469702779745
1.7829987986472609,10.932802999418616,-0.037800343241747,1.20287225122951,-0.5371523316480051
1.775152035615696,10.682222203298892,-0.03693073324934789,1.1836115213393046,-0.519604108652924
1.7674857906037702,10.43565276844938,-0.03608112400708718,1.1646688105608083,-0.5027636020222735
1.7599959051896423,10.193028989891502,-0.0352511180322283,1.1460338423713772,-0.4865944956428394
1.7526783055098303,9.954287277141301,-0.034440307489790996,1.127696755249603,-0.47106268618007474
1.7455290041330809,9.719366069293422,-0.0336482770506792,1.109648081396861,-0.45613612651564234
1.7385441013739475,9.488205754437796,-0.03287460636963719,1.0918787267519383,-0.44178468175038843
1.7317197861210927,9.26074859314707,-0.03211887222898151,1.0743799522073658,-0.42797999664684494
1.7250523362462586,9.036938645791238,-0.031380650388485865,1.0571433559434178,-0.41469537349655744
1.7185381186518907,8.816721703452927,-0.030659517176923452,1.0401608568024183,-0.40190565949675655
1.7121735890083807,8.600045222232307,-0.029955050856505117,1.0234246786320749,-0.38958714280952406
1.7059552912257376,8.386858260745068,-0.029266832787713245,1.0069273355321073,-0.3777174565558779
1.6998798566990587,8.17711142063013,-0.028594448418752673,0.9906616179435036,-0.36627549006817733
1.6939496191790069,7.970897762407635,-0.027884004153169953,0.9732779841754821,-0.382133948138684
1.6881647174513414,7.768322558967711,-0.027210298015071247,0.9560096676333334,-0.3999416530796659
1.6825174821695619,7.569361932166451,-0.02657289514473633,0.9388534447596192,-0.41958549893079344
1.677000343895689,7.373992667489798,-0.02597127889214659,0.9218062188275533,-0.4409554876444549
1.6716058494632,7.1821921879774635,-0.025404858560130483,0.9048650146232408,-0.4639444826044239
1.6663266767810614,6.993938529219427,-0.02487297650785679,0.8880269735485479,-0.48844797012119007
1.6611556482083336,6.809210315338547,-0.024374914660979206,0.8712893491265103,-0.5143638279390916
1.6560857426194928,6.627986735876426,-0.02390990047083814,0.8546495028936907,-0.5415920998181308
1.6511101062720992,6.450247523502622,-0.023477112361480715,0.8381049006663408,-0.5700347752746028
1.6462220625806605,6.275972932469845,-0.023075684699839782,0.8216531091696394,-0.599595573579487
1.6414151208934524,6.105143717739757,-0.02270471232119062,0.8052917930216801,-0.6301797311219638
1.6366829843626371,5.937741114705517,-0.022363254638954458,0.7890187120663139,-0.6616937912473491
1.63201955699222,5.773746819438156,-0.022050339365016814,0.7728317190514264,-0.6940453956740837
1.6274189499431784,5.61314296938432,-0.021764965863952043,0.7567287576517839,-0.727143076582949
1.6228754871704671,5.4559121244428646,-0.021506108161870104,0.7407078608382548,-0.7608960484531601
1.6183837104625303,5.302037248347055,-0.02127271762800456,0.7247671495980262,-0.7952139986940582
1.613938383950405,5.1515016902778505,-0.02106372534461836,0.708904832013446,-0.8300068760873625
1.609534498150499,5.00428916663185,-0.020878044178292775,0.6931192027103572,-0.865184676012853
1.6051672736026465,4.86038374286478,-0.020714570563160187,0.6774086426903208,-0.900657221379352
1.6008321641630823,4.719769815327972,-0.020572186004117726,0.6617716195649865,-0.9363339381222802
1.5965248600105737,4.582432093011057,-0.020449758305489115,0.6462066882151476,-0.9721236240581329
1.5922412904230618,4.448355579098781,-0.020346142527957668,0.6307124919017685,-1.00793420980411
1.5879776263818728,4.317525552243627,-0.02026018167384323,0.6152877638615981,-1.0436725103769289
1.583730283060839,4.189927547448434,-0.02019070709790633,0.5999313294259665,-1.0792439659775768
1.5794959222585903,4.065547336444354,-0.020136538637797064,0.5846421087081244,-1.1145523703473883
1.5752714548338482,3.9443709074392252,-0.02009648445498367,0.5694191199121535,-1.1494995849443657
1.5710540432058626,3.826384444099304,-0.020069340573451493,0.5542614833251943,-1.1839852370360981
1.5668411039851913,3.711574303613368,-0.020053890099606578,0.5391684260646785,-1.2179063996361614
1.5626303108039603,3.5999269936718967,-0.020048902102593632,0.5241392876636053,-1.2511572510239115
1.558419597419582,3.491429148175282,-0.020053130129581563,0.5091735265898811,-1.2836287113829892
1.5542071611718078,3.3860675014632307,-0.020065310325409865,0.49427072781059306,-1.3152080538721904
1.549991466880014,3.283828860832564,-0.020084159120243146,0.4794306115290741,-1.3457784872052867
1.545771251275931,3.1847000770815974,-0.020108370442455278,0.4646530432420355,-1.3752187065671544
1.5415455280767643,3.0886680127861332,-0.020136612406749126,0.44993804528618836,-1.4034024094378688
1.5373135938150204,2.995719507973842,-0.020167523419384614,0.4352858100689683,-1.4301977726433635
1.5330750345545008,2.905841342819919,-0.020199707633183805,0.4206967152064896,-1.4554668867150866
1.5288297336371914,2.8190201969367266,-0.0202317296745217,0.4061713408239239,-1.479065143443292
1.5245778806233474,2.735242604772747,-0.020262108552565578,0.39171048930921687,-1.500840572381206
1.5203199816073614,2.6544949065709957,-0.02028931064730205,0.37731520785030465,-1.5206331220474054
1.516056871115409,2.576763194263247,-0.020311741657006645,0.36298681412826905,-1.5382738817500443
1.511789725817862,2.5020332515935593,-0.020327737367249382,0.34872692558305113,-1.5535842404189095
1.5075200803207358,2.430290487672547,-0.020335553081571506,0.33453749271231603,-1.5663749797241726
1.5032498453367749,2.361519863062817,-0.020333351527581436,0.3204208369041664,-1.5764453002929752
1.4989813285792914,2.295705807387751,-0.020319189019880585,0.30637969333456,-1.583581782308355
1.4947172587720359,2.2328321273431975,-0.020290999620647805,0.2924172594707294,-1.587557285625345
1.4904608132283004,2.172881903880569,-0.02024657698635587,0.2785372496971743,-1.5881298003965998
1.4862156495251913,2.1158373772301964,-0.02018355351944648,0.2647439564968379,-1.5850412679766213
1.4819859418890977,2.0616798183618563,-0.02009937634811062,0.25104231843974284,-1.578016404890636
1.4777764230227772,2.010389385461412,-0.019991279521608358,0.2374379948978372,-1.5667615818255298
1.473592432253938,1.9619449640798017,-0.01985625161019403,0.22393744683179573,-1.5509638376980834
1.4694399710867763,1.916323989846891,-0.019690997600870893,0.210548022053071,-1.530290149885613
1.4653257675188107,1.8735022531361452,-0.019491893522608862,0.1972780418587897,-1.5043871414254881
1.4612573508895248,1.833453685964745,-0.019254931518210623,0.18413688358312372,-1.4728814926071976
1.457243139626279,1.79615013293893,-0.018975651941272292,0.17113504999607135,-1.4353814493879646
1.453292545163726,1.7615611105304048,-0.018649057225899154,0.15828421103751109,-1.3914800000984033
1.4494160967275125,1.7296535628597276,-0.018269499309467918,0.1455971953498789,-1.3407605451318119
1.445625593906649,1.700391628101336,-0.01783052755589979,0.13308789758717357,-1.28280623504929
1.4419342975075464,1.6737364384190556,-0.01732467624507649,0.12077105176787589,-1.2172146210664896
1.4383571749253357,1.6496459888702084,-0.016743157871216673,0.10866180107828691,-1.1436198475860182
1.4349112255329335,1.6280751275695593,-0.016075407770708896,0.09677497321361542,-1.0617252539886541
1.431615926508572,1.608975739915092,-0.015308392461304452,0.0851239568289271,-0.9713497163169615
1.4284938634275366,1.5922972197199883,-0.014425541643796455,0.07371909264824658,-0.8724907750906389
1.42557164808969,1.5779873276417007,-0.013405080621409151,0.06256559381164117,-0.7654053407201924
1.4228812875824945,1.565993504729935,-0.012217400399499043,0.051661291062311716,-0.6507023774978
1.42046227393145,1.5562645823443333,-0.010820824848544842,0.04099511261007163,-0.5294286611735434
1.4183648759632932,1.548752516945509,-0.009154393895805461,0.030548367378721276,-0.40310757687742454
1.4166556798047365,1.5434131130158768,-0.007123664757115153,0.020303098617764963,-0.27366889365550984
1.4154285183106168,1.5402031027183085,-0.004563587567834775,0.0102684280257294,-0.14320366409981028
1.4148363633553318,1.539063520314798,-0.0010759834348808214,0.000584737721997259,-0.013544433642056763
