x,y,v_x,v_y,omega
2.375,32.48,0.0,3.3846153846153846,-3.7142857142857144
2.3742299070844233,31.877848790141623,-0.008556587950852648,3.3059536138109715,-3.479202741024199
2.3720329323505203,31.289572724493215,-0.015854242425846675,3.2304471156157852,-3.2663744290251024
2.368619728720688,30.714621939675098,-0.022070242350069394,3.1578949379188694,-3.0730695032512685
2.364171471455765,30.15248117758736,-0.027354838371296115,3.088113529722634,-2.8969526619520463
2.3588443161671844,29.6026668301331,-0.03183577594626675,3.020934775324724,-2.7360193623133724
2.3527731172819784,29.064724312401744,-0.03562198944490917,2.9562043105792295,-2.5885425605724977
2.3460745412631137,28.538225718034752,-0.03880663298692133,2.8937800712762445,-2.453028997809648
2.338849682299811,28.022767718541377,-0.041469577716439915,2.833531034205688,-2.3281831517349123
2.331186267312617,27.517969674711505,-0.04367947769682828,2.7753361194595634,-2.212877377947201
2.323160520633469,27.02347193338122,-0.04549548540481882,2.7190832286547035,-2.1061270736917597
2.314838745625231,26.538934286936605,-0.046968681353383356,2.6646683985076867,-2.0070699365025084
2.3062786700459825,26.064034576308874,-0.048143269527151956,2.6119950529115736,-1.9149485764166703
2.2975305935684633,25.59846742098266,-0.04905758022306223,2.5609733396018868,-1.8290958863401543
2.288638369095804,25.14194306183277,-0.0497449139175964,2.511519539841348,-1.7489226900415442
2.2796402440324806,24.69418630451782,-0.050234253452663545,2.463555541435853,-1.6739072782294906
2.2705695832113215,24.25493555276579,-0.05055086678243877,2.4170083669200566,-1.6035865155676028
2.2614554915380283,23.82394192224328,-0.05071681847637323,2.3718097499967614,-1.5375482593713317
2.252323351432694,23.400968426853094,-0.050751404916229925,2.3278957543386,-1.4754248772299021
2.2431952876958903,22.98578923028888,-0.05067152549270192,2.2852064297082126,-1.416887688305449
2.2340905704040805,22.578188956519828,-0.050491999971847855,2.243685501059041,-1.361642183443037
2.2250259647649355,22.17796205360621,-0.05022584046309784,2.2032800868700546,-1.3094239039298692
2.216016035473232,21.784912205876005,-0.04988448500027127,2.1639404434655543,-1.2599948789056972
2.2070734119507542,21.398851790039778,-0.0494779985828186,2.1256197324924773,-1.2131405379429463
2.198209019887258,21.019601371297732,-0.04901524656713995,2.0882738090858237,-1.1686670288907204
2.1894322836904796,20.646989235909725,-0.048504044508176324,2.0518610285587195,-1.126398882272277
2.1807513037739037,20.280850957065006,-0.04795128789822076,2.0163420697159298,-1.0861769727875779
2.1721730120393477,19.921028991210186,-0.04736306470796007,1.9816797731154223,-1.0478567361586164
2.163703308429077,19.56737230227801,-0.04674475318393609,1.9478389927976352,-1.0113066059525302
2.155347181014269,19.21973601151082,-0.04610110698059835,1.9147864601711717,-0.9764066403574114
2.1471088117408526,18.87798107079525,-0.04543632939069464,1.882490658890676,-0.9430473133554356
2.1389916696600144,18.54197395762291,-0.044754138174172856,1.8509217096908641,-0.9111284484893184
2.130998593220552,18.211586389967977,-0.04405782226429365,1.8200512642528361,-0.8805582765748486
2.123131862986885,17.88669505953028,-0.04335029144312263,1.7898524072771513,-0.851252601375332
2.1153932659641033,17.56718138193312,-0.04263411992111548,1.76029956602461,-0.82313405950594
2.1077841525551952,17.252931262591336,-0.04191158462230815,1.7313684266618887,-0.7961314627451527
2.1003054870414544,16.94383487707828,-0.04118469886370028,1.7030358568164812,-0.7701792125527056
2.0929578923617873,16.639786464922352,-0.04045524202149074,1.6752798338049657,-0.7452167779749517
2.0857416898672883,16.340684135855273,-0.03972478569516713,1.6480793780514729,-0.721188229297637
2.0786569346417503,16.046429687617223,-0.03899471681080796,1.6214144912601784,-0.6980418208145869
2.0717034469046873,15.756928434498537,-0.038266258045447046,1.5952660989474665,-0.675729616945173
2.0648808399492906,15.472089045865363,-0.03754048590340499,1.5696159969767005,-0.6542071566758093
2.058188545012122,15.191823393977991,-0.03681834673180226,1.544446801771868,-0.6334331519395702
2.051625833423016,14.916046410466066,-0.03610067092493332,1.5197419039161861,-0.613369216098853
2.045191836341633,14.644675950875445,-0.035388185534879185,1.4954854248684926,-0.5939796191718419
2.0388894183834463,14.377633462682063,-0.03463868066719475,1.471653332835748,-0.5740064109947179
2.032720728722479,14.114843023261034,-0.03390231556576949,1.4482404385090104,-0.5548752911238023
2.026683392800563,13.856230432492879,-0.03317919467774602,1.4252327922482646,-0.5365413320549988
2.0207750219394915,13.60172394837576,-0.032469370445270686,1.4026170312752806,-0.5189624552776768
2.014993222097338,13.351254184194698,-0.03177285002310179,1.3803803485143107,-0.5020992217171062
2.0093356014850734,13.104754011122775,-0.03108960122427854,1.3585104633959473,-0.4859146396531547
2.0037997771744243,12.862158465913893,-0.03041955778293936,1.3369955944805234,-0.47037398848896783
1.9983833808128169,12.623404663371403,-0.02976262401269512,1.3158244337693683,-0.4554446569100762
1.993084063548008,12.388431713299685,-0.029118678929625875,1.2949861225830568,-0.44109599412246364
1.9878995002532698,12.157180641666603,-0.028487579900799323,1.2744702288956218,-0.4272991729898315
1.982827393133713,11.92959431572396,-0.027869165872052768,1.2542667260226272,-0.414027064007569
1.977865474785203,11.705617372850703,-0.02726326022250465,1.2343659725691345,-0.40125411915550074
1.9730115107692798,11.485196152899892,-0.026669673287753187,1.2147586935509926,-0.3889562647648165
1.9682633017603828,11.268278633845433,-0.026088204588879393,1.1954359626096405,-0.377110802618004
1.9636186853153732,11.054814370538356,-0.025518644800114714,1.176389185246766,-0.3656963185752388
1.9590755373097772,10.844754436395174,-0.024960777484285716,1.1576100830107992,-0.3546925980875381
1.9546317730802254,10.63805136785269,-0.024414380621845918,1.1390906785723636,-0.34408054801693966
1.9502853483081841,10.434659111434431,-0.023879227956392298,1.1208232816305228,-0.3338421242377847
1.9460342596761793,10.234532973284047,-0.023355090176993023,1.1028004755959733,-0.3239602645415524
1.9418765453242657,10.037629571030294,-0.02284173595538162,1.0850151050012955,-0.3144188264112064
1.9378102851314154,9.843906787856898,-0.022338932854064453,1.067460263592007,-0.3052025292701994
1.9338336008437846,9.653323728658624,-0.02184644811961128,1.0501292830554956,-0.2962969008466072
1.9299446560693754,9.46584067817231,-0.02136404937382483,1.0330157223479808,-0.2876882273247365
1.926141656156463,9.281419060978568,-0.020891505214090642,1.016113357582471,-0.27936350698534457
1.9224228479712275,9.100021403276251,-0.02042858573297144,0.999416172443283,-0.27131040706163506
1.9187903115747282,8.921827334270105,-0.01993292978368646,0.9805179276250071,-0.3111315864093961
1.9152430962337208,8.747025730204673,-0.019480574005286397,0.9617221175464576,-0.35211225169113336
1.9117735337088906,8.57559838166484,-0.01907012071504772,0.9430261995627971,-0.3941527646418525
1.9083742087432363,8.407527528115374,-0.018700156681111153,0.9244277287646124,-0.4371548417957543
1.9050379616056987,8.242795840527865,-0.018369255958196287,0.9059243555410277,-0.4810213383522577
1.901757890153376,8.08138640441561,-0.01807598240094362,0.8875138234840346,-0.5256560327272723
1.8985273514687107,7.923282703214877,-0.017818891873117252,0.8691939676352368,-0.5709634108400271
1.8953399631249737,7.768468601950602,-0.017596534168405207,0.850962713078941,-0.616848449158366
1.8921896041307682,7.616928331123535,-0.017407454656099226,0.8328180738884506,-0.6632163954898304
1.8890704156020943,7.468646470754376,-0.017250195662498316,0.8147581524355598,-0.7099725464614799
1.8859768012087905,7.323607934518275,-0.01712329759643479,0.7967811390766638,-0.7570220205775818
1.8829034274408756,7.1817979539004355,-0.017025299824842372,0.7788853122326503,-0.8042695256802362
1.8798452237394827,7.043202062299947,-0.01695474130174454,0.7610690388838788,-0.8516191195627988
1.876797382536699,6.907806079004843,-0.01691016095140807,0.7433307755061637,-0.8989739623985846
1.873755359248744,6.775596092956192,-0.016890097803648682,0.7256690694788442,-0.9462360595466376
1.8707148722675435,6.646558446212932,-0.016893090876357184,0.7080825610018351,-0.9933059931810455
1.8676719029969235,6.520679717021906,-0.01691767879719612,0.690569985565133,-1.0400826410589672
1.8646226959814012,6.397946702389088,-0.016962399153054895,0.6731301770217301,-1.0864628805936887
1.8615637591779284,6.278346400038025,-0.017025787552197105,0.6557620713234067,-1.1323412762310276
1.8584918644240278,6.161865989629941,-0.01710637638003248,0.6384647109886279,-1.1776097479385812
1.8554040481595715,6.048492813106499,-0.01720269322503638,0.621237250382939,-1.2221572184059968
1.8522976124641375,5.938214354000575,-0.01731325894645256,0.6040789619051022,-1.2658692363190824
1.8491701264774592,5.8310182155422865,-0.01743658534997167,0.5869892431869871,-1.3086275728098404
1.8460194282771278,5.726892097366555,-0.017571172431489174,0.5699676254322465,-1.3503097878976034
1.842843627295495,5.625823770604196,-0.017715505142210528,0.5530137830384246,-1.390788763423339
1.8396411073668355,5.527801051110462,-0.017868049620671577,0.5361275446697389,-1.4299321986411826
1.8364105305064062,5.432811770552544,-0.01802724882854401,0.5193089059738056,-1.4676020642716414
1.8331508415352853,5.340843745040008,-0.018191517517243294,0.5025580441654866,-1.5036540104460479
1.8298612736790285,5.251884740938934,-0.018359236441167208,0.4858753347353256,-1.5379367235925994
1.8265413552844647,5.165922437460626,-0.018528745720650407,0.4692613705791905,-1.5702912269482718
1.8231909178177217,5.082944385558385,-0.01869833724316352,0.45271698389015114,-1.6005501190553937
1.8198101053281235,5.0029379625999475,-0.01886624597459331,0.43624327120359285,-1.6285367443583865
1.8163993855874212,4.925890322207838,-0.019030640033208767,0.41984162204206743,-1.6540642899175815
1.8129595631423365,4.851788338574028,-0.019189609356620747,0.4035137516669335,-1.6769348023958865
1.8094917945513032,4.780618544458278,-0.019341152765974007,0.3872617385080859,-1.6969381199872178
1.8059976061142944,4.712367061970802,-0.01948316320078905,0.3710880669083154,-1.7138507150440352
1.8024789144487436,4.647019525119838,-0.019613410860887016,0.3549956758801678,-1.727434445119635
1.7989380503160703,4.584560992974623,-0.019729523946594087,0.33898801462219835,-1.7374352134004876
1.7953777861640194,4.52497585215783,-0.01982896663174841,0.3230691055644109,-1.7435815446966947
1.7918013679223759,4.468247707245194,-0.01990901383095965,0.3072436156870985,-1.7455830912105987
1.78821255167732,4.414359257526051,-0.019966722225216157,0.2915169367478247,-1.743129094573233
1.7846156459582478,4.363292158486548,-0.019998896875584805,0.27589527480220977,-1.7358868491208892
1.781015560508807,4.315026866350749,-0.02000205256264877,0.26038574892887967,-1.7235002390115512
1.7774178625946955,4.269542464106124,-0.01997236870525724,0.24499649823363337,-1.705588462860218
1.7738288421460908,4.226816467732387,-0.019905636279237613,0.2297367948078815,-1.6817451204162472
1.7702555873777777,4.186824611975922,-0.019797194479796363,0.21461715804172976,-1.6515379256213516
1.7667060730334536,4.149540616164938,-0.01964185379047063,0.19964946208032103,-1.6145094424667594
1.7631892641592821,4.114935932544693,-0.019433800366993416,0.18484702258905064,-1.570179433259202
1.7597152394877584,4.082979482874556,-0.019166473761045,0.17022464041246943,-1.5180496890629196
1.7562953403786152,4.0536373942136485,-0.018832405229437646,0.1557985669309386,-1.4576126125382363
1.7529423542757678,4.026872752812817,-0.018422995913311806,0.14158633752273456,-1.388365381766104
1.7496707465627197,4.002645406933205,-0.017928200898333243,0.12760639447295385,-1.3098322684638912
1.7464969628021418,3.9809118663486025,-0.01733606310808794,0.11387738980038842,-1.2215985962500024
1.7434398367075594,3.9616253687055796,-0.016632004609493996,0.10041702845541833,-1.123360743192314
1.7405211611696294,3.94473620876758,-0.015797723589727482,0.08724030418903976,-1.0149970076821433
1.7377665156174262,3.9301924472317076,-0.014809449212531044,0.07435704620953917,-0.896662816497172
1.7352065018940035,3.9179411080559525,-0.013635147714387827,0.061768944632179884,-0.768908100887665
1.7328786403637753,3.90792988620759,-0.012229980399257954,0.04946685368297456,-0.6328005847310194
1.7308303664097178,3.9001091265174885,-0.010528619090270856,0.03743047620703208,-0.490012423794869
1.7291240235722238,3.89443323382946,-0.008430745770773101,0.025634998104398794,-0.34279285855357455
1.727846301773345,3.8908593061863286,-0.005766163105657952,0.01407530904151821,-0.1937283103681947
1.7271327244802965,3.889335727889897,-0.002162473483769776,0.00285333869660352,-0.045229911708656256
