x,y,v_x,v_y,omega
2.375,32.48,0.0,3.435897435897436,-6.8979591836734695
2.3735701811973295,31.86885854026195,-0.015886875585228506,3.3545632278586446,-6.4547498439714035
2.369492073960977,31.272050710674026,-0.0294254270409072,3.2766348786738337,-6.054242988835159
2.363158343157644,30.688984617593366,-0.04094935966279625,3.201877266666824,-5.691091808211694
2.3549062437323784,30.119108583995946,-0.050740633951265345,3.1300786621934185,-5.360745163292097
2.345026131936144,29.561907227123108,-0.05903838600689497,3.0610475252825817,-5.059311757504534
2.333768525291442,29.016898061467597,-0.06604613226757049,2.9946098708897297,-4.783450456933365
2.3213499869558314,28.483628535885178,-0.07193762701699355,2.9306070800260686,-4.530281139414885
2.3079580517663927,27.961673432841256,-0.07686165286565808,2.8688940649063865,-4.297311790498533
2.2937553666419057,27.45063257237527,-0.08094595962864234,2.8093377180489942,-4.0823785524558405
2.2788831835797616,26.950128774531454,-0.08430051883962274,2.7518155913267646,-3.883596169975327
2.263464316645863,26.459806042647934,-0.0870202248703666,2.696214762934571,-3.6993168324246315
2.247605653264894,25.979327936652222,-0.08918714602928951,2.642430859240005,-3.5280958361506745
2.2314002934191457,25.50837611084181,-0.09087240781235607,2.590367205320127,-3.368662815694891
2.2149293770516274,25.046648994872665,-0.09213777404895608,2.539934083225944,-3.219897544796843
2.1982636492907623,24.59386060008631,-0.09303697884954718,2.491048081066899,-3.080809504654167
2.181464804499769,24.14973943606532,-0.09361685216148648,2.4436315191663085,-2.950520571329803
2.1645866431687275,23.714027524558364,-0.09391827373897624,2.3976119420221056,-2.8282502962637333
2.147676069976048,23.286479499766592,-0.09397698395746144,2.352921666775374,-2.713303350903719
2.1307739566884303,22.866861785515326,-0.09382427479384543,2.3094973804608747,-2.6050587840650157
2.113915889740884,22.45495184111181,-0.09348758017889333,2.2672797795782063,-2.5029608029832446
2.0971328191809597,22.05053746876057,-0.09299098159804457,2.226213246546692,-2.4065108393722894
2.080451623047239,21.65341617631152,-0.09235564210996046,2.1862455584427605,-2.315260702636041
2.063895599080493,21.26339458988225,-0.0916001797427775,2.147327624104699,-2.228806655647113
2.04748489385604,20.880287911549743,-0.09074098941780813,2.109413246256504,-2.1467842757109823
2.031236877912872,20.50391941786703,-0.08979252106183855,2.07245890577363,-2.0688639856692768
2.0151664741866275,20.13411999544276,-0.08876752034087568,2.0364235656071297,-1.9947471584998309
1.9992864459871236,19.7707277102389,-0.0876772374313902,2.0012684922135073,-1.9241627139883022
1.9836076498622282,19.41358740760416,-0.08653160840078075,1.9669570926169606,-1.8568641386702163
1.9681392579302512,19.062550340376536,-0.08533941306563145,1.9334547654677812,-1.7926268707484394
1.9528889536195244,18.717473822664786,-0.0841084126091085,1.9007287646627824,-1.7312460004612682
1.9378631042074645,18.378220907161136,-0.08284546974711486,1.868748074266669,-1.6725342437188564
1.9230669130864233,18.044660084051152,-0.08155665382000742,1.8374832936220142,-1.61632015299031
1.9085045542870893,17.716664999775418,-0.08024733283925907,1.8069065316638988,-1.5624465346135052
1.8941792914512732,17.394114194064688,-0.07892225422536699,1.7769913095664494,-1.5107690460801553
1.8800935831556949,17.07689085381864,-0.07758561572550142,1.7477124709451721,-1.4611549505554198
1.8662491762393536,16.764882582530483,-0.07624112778940167,1.7190460989232417,-1.4134820090357496
1.8526471885729738,16.457981184077468,-0.07489206850370514,1.6909694394436223,-1.3676374932223043
1.8392881825246568,16.15608245980292,-0.07354133203315313,1.6634608302735558,-1.323517304465917
1.8261722302167769,15.859086017909867,-0.0721914713877351,1.6364996352048333,-1.2810251860858877
1.8132989715316934,15.566895094271125,-0.07084473622430061,1.6100661830034322,-1.2400720180309492
1.8006676657048157,15.279416383837237,-0.06950310629656387,1.5841417107064508,-1.2005751842799206
1.7882772372403575,14.996559881892335,-0.06816832108630419,1.5587083109035833,-1.1624580046080453
1.7761263167954906,14.718238734470237,-0.0668419060788841,1.533748882675285,-1.1256492234030904
1.764213277600629,14.444369097299283,-0.06552519608624666,1.5092470858908575,-1.0900825491283737
1.752536267915668,14.17487000269534,-0.06421935596887414,1.4851872985973988,-1.0556962388193383
1.741099997527606,13.90966581296447,-0.06285031500959276,1.4615259206345024,-1.0203177157495609
1.7299079216765785,13.648683376606431,-0.06150608333515671,1.4382789277881258,-0.986424261558862
1.7189555666159335,13.391849346068042,-0.06018675067201021,1.415432522638421,-0.9539369254300252
1.7082384500021757,13.139092804944458,-0.05889232281418651,1.3929734898458612,-0.9227817468078785
1.6977520950088345,12.890345166004629,-0.05762273266738092,1.3708891650411235,-0.8928893893742516
1.6874920425664897,12.645540074638252,-0.056377850025341895,1.34916740569641,-0.864194805474071
1.6774538619440613,12.404613317380793,-0.05515749022385919,1.3277965638309042,-0.8366369281645287
1.6676331598618803,12.16750273519861,-0.05396142180037586,1.3067654604155754,-0.8101583883487684
1.6580255883053532,11.934148141239362,-0.052789373272147645,1.2860633613538648,-0.7847052547127114
1.6486268511889226,11.70449124277426,-0.05164103913263737,1.265679954925027,-0.7602267944123815
1.6394327100031054,11.478475567078249,-0.050516085154220125,1.2456053305861934,-0.7366752526628041
1.6304389885624686,11.256046391012102,-0.049414153075077794,1.2258299590376494,-0.7140056495611975
1.6216415769591837,11.037150674087002,-0.04833486473919798,1.2063446734634797,-0.6921755926393502
1.6130364348151103,10.821736994807285,-0.047277825750504904,1.187140651866702,-0.671145103785028
1.6046195939149965,10.60975549010109,-0.046242628695204034,1.1682094004243526,-0.6508764593019708
1.5963871602942012,10.401157797661458,-0.045228855980298875,1.1495427377937786,-0.631334041994255
1.588335315846199,10.195897001032417,-0.044236082330836334,1.1311327803066655,-0.612484204265024
1.580460319507894,9.993927577285522,-0.04326387698366652,1.1129719279921566,-0.5942951413131781
1.5727585080743478,9.795205347142492,-0.04231180561128725,1.0950528513748299,-0.576736773595736
1.5652262966888268,9.599687427408998,-0.0413794320056146,1.0773684789973388,-0.5597806377992692
1.5578601790489817,9.40733218559333,-0.040466319548220435,1.059911985621222,-0.5433997856319838
1.550656727365483,9.21809919659177,-0.0395720324906541,1.0426767810627813,-0.5275686898094957
1.5436125921053954,9.031949201329954,-0.0386961370658737,1.0256564996240416,-0.5122631566628184
1.5367245015490105,8.84884406725644,-0.03783820244951323,1.008844990081671,-0.4974602448472001
1.5299892611856638,8.668746750591147,-0.03699780158767093,0.9922363061993682,-0.48313818967576416
1.523411110400906,8.491845521490866,-0.03609276268741818,0.9733329060259669,-0.5190253639857552
1.5169910969658076,8.318337570961194,-0.03524071992478571,0.9545332109703696,-0.5561408076909895
1.5107198457603443,8.148204464026488,-0.034439849024807005,0.9358346438597179,-0.594379406439528
1.5045883100307376,7.981428220307915,-0.033688325748601984,0.9172347307910874,-0.6336375623254267
1.4985877711941304,7.817991295666452,-0.032984327991476325,0.8987310985585059,-0.6738129611203866
1.4927098382914445,7.657876564275455,-0.032326037593922455,0.8803214724525742,-0.7148043408982384
1.486946447138594,7.501067301055713,-0.03171164188219493,0.8620036744334385,-0.7565112610227108
1.4812898592234485,7.347547164405427,-0.031139334952756077,0.8437756216808615,-0.7988338704468889
1.4757326603935708,7.197300179156599,-0.030607318712551995,0.8256353255283183,-0.8416726742421662
1.4702677593778124,7.050310719687818,-0.03011380368476229,0.8075808907914493,-0.8849282972348513
1.4648883861833228,6.906563493121148,-0.029657009587345465,0.7896105155048861,-0.9285012435793406
1.4595880904084202,6.766043522528015,-0.02923516568935125,0.7717224910854883,-0.9722916510372345
1.4543607395110976,6.62873613006532,-0.02884651094756539,0.7539152029444574,-1.0161990386612016
1.449200517072696,6.494626919958506,-0.02848929392356356,0.7361871315756967,-1.0601220464999104
1.444101921096497,6.3637017612429005,-0.028161772478649295,0.7185368541532586,-1.1039581658449997
1.4390597623816923,6.235946770168191,-0.02786221324140316,0.7009630466768524,-1.1476034584318107
1.4340691630143982,6.111348292163257,-0.027588890839641396,0.6834644867113007,-1.1909522628813343
1.4291255550191417,5.98989288324961,-0.027340086885432005,0.6660400567736502,-1.233896886530406
1.4242246792165965,5.871567290781236,-0.027114088698401446,0.6486887484305169,-1.2763272806394368
1.419362584336345,5.7563584333764375,-0.026909187748836237,0.6314096671783502,-1.3181306967908575
1.4145356264371312,5.644253379893211,-0.026723677797986862,0.6142020381908236,-1.3591913220960414
1.4097404686915516,5.535239327283271,-0.026555852708454116,0.5970652130307283,-1.3993898906132003
1.4049740815974645,5.429303577141013,-0.02640400389251133,0.5799986774388056,-1.4386032681435608
1.4002337436846837,5.326433510741893,-0.02626641736061009,0.5630020603291876,-1.4767040073188422
1.395517042792885,5.22661656233959,-0.02614137032604185,0.546075144140829,-1.5135598696217825
1.39082187800522,5.129840190462399,-0.02602712731467853,0.5292178767168342,-1.5490333106972425
1.3861464623320296,5.036091846916051,-0.025921935720770204,0.5124303849092711,-1.582980925021218
1.3814893262504888,4.945358943161953,-0.02582402074079408,0.49571299013624953,-1.6152528457099644
1.3768493222191736,4.8576288136960954,-0.025731579607154522,0.47906622615105676,-1.6456920949885956
1.3722256303016567,4.7728886760036815,-0.025642775031919758,0.46249085932021844,-1.6741338806237782
1.3676177650506103,4.691125586607491,-0.025555727757485446,0.44598791174857777,-1.7004048334969553
1.3630255838238197,4.612326392663,-0.025468508095743653,0.42955868763466915,-1.7243221815092278
1.3584492967264419,4.536477678479947,-0.025379126319564425,0.41320480328815246,-1.7456928552488233
1.3538894784002204,4.463565706267783,-0.025285521749562567,0.3969282212914671,-1.7643125214361732
1.349347081910866,4.3935763503111716,-0.025185550354375905,0.3807312893375586,-1.7799645412624712
1.3448234550202205,4.326495023681986,-0.02507697065279663,0.3646167843200529,-1.7924188526043074
1.3403203591712358,4.262306596487601,-0.024957427669255072,0.34858796228423483,-1.8014307780892123
1.335839991562719,4.2009953045450885,-0.02482443464759775,0.33264861485480024,-1.8067397656241604
1.331385010749354,4.142544647263268,-0.02467535216757074,0.31680313272096594,-1.808068075032069
1.3269585662738208,4.086937273419686,-0.024507364227241483,0.30105657665216773,-1.8051194349562587
1.322564332926573,4.034154853454563,-0.024317450742177418,0.28541475629362983,-1.7975777097624297
1.3182065503421352,3.9841779368957226,-0.024102355751576248,0.26988431658238604,-1.785105639069714
1.3138900687898178,3.936985793619833,-0.023858550385283665,0.25447283092751655,-1.767343746073285
1.3096204022191211,3.8925562379121352,-0.023582189289123236,0.23918889915802208,-1.7439095597397019
1.3054037899040394,3.8508654348095206,-0.023269058656228806,0.22404224642660017,-1.714397367095496
1.3012472684415421,3.81188768915257,-0.022914513149295306,0.20904381642840578,-1.6783788149017664
1.2971587564717972,3.7755952193572533,-0.0225133976256485,0.1942058479640095,-1.6354048285732377
1.2931471554222693,3.7419579204770557,-0.02205994736910524,0.17954191737150255,-1.5850095286041086
1.2892224710329667,3.7109431251317986,-0.021547656956479182,0.16506691979802207,-1.5267171244181181
1.2853959627204297,3.682515376969505,-0.020969102071709253,0.15079694867190177,-1.460053178960468
1.2816803315130392,3.6566362403054846,-0.02031568912151803,0.13674901426164626,-1.3845621859654587
1.2780899631964262,3.633264182297321,-0.019577292174181624,0.12294051916241133,-1.2998340793915222
1.2746412528127928,3.612354580962073,-0.018741712088410203,0.10938838456257409,-1.2055430122645927
1.271353051907492,3.59385993262822,-0.01779385352604208,0.09610770803580829,-1.1015022105576109
1.268247304227319,3.5777303514233125,-0.01671445403143476,0.08310986090760647,-0.9877382100175977
1.2653499741505152,3.563914458177859,-0.015478102377496989,0.07040006404187131,-0.8645848240459009
1.262692434098727,3.5523607176043583,-0.014050120420151987,0.05797483121925695,-0.7327891923109925
1.2603135836567936,3.5430191452435658,-0.01238155115688401,0.04582041723397535,-0.5936061121340928
1.2582631916595712,3.5358429761681336,-0.010400582145587287,0.03391479471527545,-0.4488321527387241
1.2566075518218771,3.530789194539196,-0.007995416051013839,0.022238334495155363,-0.3007071566612806
1.2554408398314654,3.527815121449727,-0.004968050509116936,0.010806922054482297,-0.1516105533718774
1.254920034884088,3.5268596132432286,-0.0008186711284085373,-0.0001901642045157234,-0.0035769136527223355
