x,y,v_x,v_y,omega
2.375,32.48,0.0,3.3846153846153846,-4.571428571428571
2.3734311937076593,31.712598496941492,-0.013641793846440306,3.288441163719424,-4.207698983976819
2.3690096496778925,30.96674784134537,-0.02480641510805421,3.1972167110294722,-3.8877676313347362
2.362255213056511,30.24135563268068,-0.03392781638221962,3.110541625185242,-3.6048831965990735
2.353597368298443,29.535416427336166,-0.04135779020967676,3.0280601604192166,-3.3535157100667674
2.3433921767004304,28.848002225652188,-0.04738300629477829,2.9494546368327748,-3.1291065002401046
2.331935739860902,28.178254331519675,-0.052238183614167336,2.874440094754271,-2.927874987705569
2.319474968048577,27.525376331538666,-0.05611635388431141,2.8027599050805896,-2.746668138894379
2.3062162420903585,26.88862799801339,-0.05917691531758639,2.73418212557399,-2.582842250859586
2.2923324175935007,26.267319962121555,-0.06155199335074415,2.6684964473984896,-2.43416945832212
2.2779685165209074,25.660809034990137,-0.06335149423702315,2.605511614613853,-2.2987632998110423
2.263246373312449,25.068494078205973,-0.0646671423582665,2.5450532269875827,-2.1750190880626903
2.248268443876848,24.48981234358476,-0.065575722299133,2.48696185667512,-2.0615658603779417
2.2331209408950294,23.924236216274682,-0.066141694934071,2.4310914242820734,-1.9572274461648735
2.217876424405749,23.37127030650959,-0.06641931801619161,2.377307791066557,-1.8609907567188144
2.202595949994751,22.830448844287996,-0.0664543725142312,2.3254875325994724,-1.7719798292027398
2.1873308561778395,22.30133333847248,-0.06628557371977963,2.2755168657963143,-1.68943448022673
2.172124256348644,21.783510467672844,-0.06594572914279187,2.2272907063744474,-1.612692671219741
2.1570122879032625,21.27659017508838,-0.06546269212139365,2.1807118378382833,-1.5411758773608295
2.1420251610670027,20.78020394346079,-0.0648601499330406,2.13569017631467,-1.474376898371625
2.1271880419353177,20.294003229597944,-0.06415827729900163,2.0921421181448623,-1.4118496634088857
2.1125217978465596,19.817658040699765,-0.06337427999454469,2.0499899592306017,-1.353200671382829
2.098043628079264,19.35085563705197,-0.06252284841672283,2.009161376837177,-1.2980817780533431
2.0837675987424267,18.89329934763065,-0.06161653712099481,1.9695889659569263,-1.2461840965782072
2.0697050973951954,18.44470748684374,-0.060666083289711466,1.9312098234944706,-1.1972328221032127
2.05586522023028,18.004812362074613,-0.05968067466607487,1.893965174497912,-1.1509828260057349
2.0422551024562203,17.573359362928816,-0.05866817554313817,1.857800035465538,-1.1072148934552075
2.028880200717643,17.150106124150305,-0.05763531783579587,1.8226629104345438,-1.065732500518114
2.015744534920991,16.734821755095375,-0.05658786300465715,1.7885055161300754,-1.0263590452587712
2.002850895623528,16.327286129452546,-0.05553073958197701,1.755282532937996,-0.9889354620627772
1.990201022145984,15.927289229593704,-0.05446816022275063,1.7229513788780297,-0.9533181604349831
1.9777957557443724,15.534630540550388,-0.05340372153039487,1.6914720041073323,-0.9193772393457972
1.9656351714924416,15.149118489142445,-0.052340489355960834,1.660806703787838,-0.8869949362502345
1.9537186919573626,14.770569924254474,-0.05128107181863814,1.6309199474119145,-0.8560642765251808
1.942045185276911,14.39880963466786,-0.050227681924421154,1.6017782229064828,-0.8264878945335176
1.9306130498498864,14.03366990122002,-0.04918219135405237,1.5733498940312511,-0.7981770020458275
1.9194202875192308,13.674990080384418,-0.048146176738603816,1.545605069756572,-0.771050483504982
1.9084645668481621,13.322616216650154,-0.047120959531559134,1.5185154844544138,-0.7450341007455387
1.8977432778546337,12.976400681333399,-0.046107640412166084,1.4920543878651886,-0.7200597923910974
1.8872719542506184,12.636203586951819,-0.04494734744883647,1.4661812154529072,-0.6914682935487609
1.8770643280537802,12.301890591590293,-0.043814619480191885,1.4408883094299156,-0.6643365340925124
1.8671140673519715,11.97333086471054,-0.04270938662249234,1.416152793872289,-0.6385711423052247
1.8574148686213585,11.650398703220844,-0.04163147190457734,1.3919529582120225,-0.6140858509645717
1.8479604792873179,11.33297327197781,-0.04058060926099257,1.3682681830317431,-0.5908008718643454
1.838744716438558,11.020938360709064,-0.03955645898909488,1.345078871479093,-0.5686423326732875
1.8297614822371302,10.714182156121122,-0.03855862102331967,1.3223663858073489,-0.5475417692111659
1.8210047764916037,10.4125970280645,-0.03758664632908652,1.3001129885980676,-0.5274356670667494
1.8124687067960505,10.116079328725217,-0.03664004667572164,1.2783017882652707,-0.5082650472149397
1.8041474965820674,9.824529203899559,-0.03571830301109018,1.256916688479586,-0.4899750909267463
1.796035491383416,9.53785041548808,-0.034820872629356396,1.235942341185434,-0.47251479981964867
1.7881271635719322,9.255950174416494,-0.0339471952965883,1.2153641029153128,-0.45583668737877675
1.7804171157880737,8.978738983255951,-0.033096698476094935,1.1951679941328959,-0.43989649870105296
1.772900083259101,8.706130487874102,-0.03226880177584085,1.1753406613614468,-0.42465295558336413
1.7655709351716737,8.438041337501765,-0.03146292072352873,1.1558693418762689,-0.4100675243991011
1.7584246752430033,8.174391052648609,-0.030678469960561425,1.1367418307598627,-0.396104204491121
1.7514564416151588,7.91510190034554,-0.029914865933737367,1.1179464501364,-0.3827293350585856
1.7446615061801953,7.660098776231752,-0.02917152915290182,1.0994720204182808,-0.369911418734689
1.7380352734291455,7.409309093041259,-0.02844788607361929,1.081307833412095,-0.3576209602458716
1.731573278905235,7.162662675077254,-0.02774337065603676,1.0634436271444585,-0.34583031871404407
1.7252711873306972,6.920091658293433,-0.027057425644292497,1.0458695622800729,-0.3345135723144835
1.7191247904670357,6.681530395629487,-0.02638950360493731,1.028576200015099,-0.3236463941358865
1.7131300047603273,6.446915367273803,-0.025739067757743296,1.0115544813386819,-0.31320593820772175
1.707282868815982,6.216185095549964,-0.025105592627867955,0.9947957075642823,-0.30317073476536954
1.7015847795367145,5.989378648043203,-0.024443009800546506,0.9774342707553784,-0.3107883866322867
1.696035486891315,5.76655051264521,-0.023811708855101626,0.9602016892271636,-0.3207971423473234
1.6906277680959612,5.547671497740659,-0.023211932843628203,0.9430940925515449,-0.33306674043994133
1.6853543605158774,5.332713283556743,-0.02264378524405623,0.9261077699173019,-0.34747120872372167
1.6802079923351587,5.121648386333312,-0.022107242414368164,0.9092391624603459,-0.36388855713034657
1.6751814104784537,4.914450124191603,-0.0216021650352399,0.89248485616321,-0.3822004834093973
1.6702674060083025,4.7110925845742635,-0.02112830861824906,0.8758415752919221,-0.4022920904241055
1.6654588372049082,4.511550593136381,-0.02068533315039738,0.8593061763418479,-0.4240516138320229
1.6607486505195372,4.315799683973321,-0.02027281193978439,0.8428756424673672,-0.4473701589896877
1.6561298995784552,4.123816071076636,-0.019890239721797057,0.8265470783733633,-0.4721414459621313
1.6515957624012374,3.935576620914002,-0.01953704008009822,0.8103177056495252,-0.49826156155174073
1.6471395569853504,3.7510588260331943,-0.0192125722319637,0.7941848585313998,-0.5256287172867582
1.6427547553980189,3.5702407795934583,-0.018916137223093748,0.7781459800750153,-0.554143012327645
1.6384349965064826,3.393101150730331,-0.01864698357287282,0.7621986187347836,-0.5837062002596674
1.6341740974687815,3.2196191606620452,-0.018404312407137212,0.7463404253372765,-0.6142214587423023
1.6299660640991038,3.04977455944692,-0.018187282111799888,0.7305691504464342,-0.6455931609802266
1.625805100214475,2.883547603301917,-0.017995012537143463,0.7148826421188048,-0.6777266479665003
1.6216856160630964,2.720919032392434,-0.017826588779194526,0.6992788440506048,-0.7105280004257084
1.617602235928939,2.5618700490026107,-0.017681064561304118,0.6837557941217557,-0.743903809352844
1.6135498050022665,2.4063822959938577,-0.017557465235849078,0.6683116233456531,-0.7777609440020303
1.6095233956015211,2.254437835456816,-0.017454790422805327,0.6529445552373195,-0.812006316127126
1.6055183128285373,2.1060191274585875,-0.017372016298794417,0.6376529056168393,-0.8465466392130487
1.6015300997362667,1.9611090087826426,-0.017308097547034784,0.622435082869653,-0.881288181361398
1.5975545420861863,1.819690671553225,-0.017261968975403014,0.6072895886904849,-0.916136510405632
1.5935876727712688,1.6817476416293182,-0.01723254680648983,0.5922150193434799,-0.9509962297285216
1.5896257759799135,1.5472637566448881,-0.017218729640078808,0.5772100674776582,-0.9857707031366318
1.585665391176548,1.4162231435623767,-0.01721939908483802,0.5622735245441797,-1.0203617670118268
1.5817033169757946,1.288610195594714,-0.017233420052146196,0.5474042838702926,-1.0546694278068562
1.5777366149892034,1.1644095483373746,-0.017259640700820693,0.5326013444544075,-1.0885915427795598
1.5737626137266525,1.0436060549359851,-0.01729689201701342,0.5178638155576638,-1.122023481666762
1.5697789126387043,0.9261847600961666,-0.017343987008624516,0.5031909221798977,-1.1548577667833735
1.5657833863915724,0.8121308727204131,-0.01739971948817441,0.48858201152231323,-1.186983688793753
1.5617741894730424,0.7014297369314413,-0.017462862412085896,0.474036560555714,-1.21828689514087
1.5577497612358218,0.5940668012118309,-0.017532165737658735,0.4595541848321969,-1.2486489478350697
1.5537088314945622,0.49002758535561597,-0.017606353751556156,0.4451346487001127,-1.2779468470007485
1.5496504268043814,0.38929764488776897,-0.017684121815232292,0.43077787710725907,-1.3060525162608514
1.545573877562355,0.2918625325617299,-0.017764132463258184,0.41648396920610586,-1.3328322457142885
1.5414788260894072,0.1977077564921359,-0.017845010779767485,0.4022532140077815,-1.3581460879439646
1.5373652358686414,0.10681873441881606,-0.017925338966021793,0.38808610836893936,-1.3818472022048345
1.5332334021377654,0.019180743528046662,-0.018003649998118453,0.37398337763774525,-1.4037811417153871
1.5290839640583358,-0.06522113482348857,-0.018078420257790474,0.35994599933212906,-1.4237850788621706
1.5249179187136166,-0.14640207622828427,-0.018148061000637192,0.3459752302747889,-1.4416869631996816
1.5207366372205389,-0.22437758104127425,-0.01821090850438441,0.3320726376642272,-1.4573046074969613
1.5165418832804147,-0.29916354985364535,-0.018265212714086293,0.3182401346172595,-1.4704446979090782
1.5123358345387015,-0.3707763677234226,-0.018309124170377538,0.3044800207721369,-1.4809017258733257
1.508121107177646,-0.4392329983996177,-0.01834067896923672,0.2907950285860732,-1.4884568418937827
1.5039007842289034,-0.5045510899253642,-0.01835778145461174,0.27718837598562535,-1.4928766354928986
1.4996784481688912,-0.5667490931554724,-0.018358184284623335,0.2636638260153165,-1.4939118520214727
1.4954582184515397,-0.625846394863089,-0.01833946543147656,0.2502257540508918,-1.491296066824509
1.4912447947470198,-0.6818634672186761,-0.018299001564349802,0.23687922295422195,-1.4847443520700874
1.4870435067998602,-0.7348220354688593,-0.018233937106601827,0.22363006617783243,-1.473951993729222
1.4828603720096072,-0.7847452655689935,-0.018141148026035087,0.21048497817116626,-1.4585933492276328
1.4787021620942613,-0.8316579732470402,-0.018017199063928947,0.19745161033361663,-1.4383209852840466
1.47457648055765,-0.8755868553648369,-0.017858292558776714,0.1845386689515552,-1.4127653078677649
1.4704918532065878,-0.9165607432918321,-0.01766020614611203,0.17175600867449536,-1.3815350028575586
1.4664578347516621,-0.9546108760063063,-0.01741821520106684,0.15911471058179932,-1.344218762254984
1.46248513574272,-0.9897711873272002,-0.017126993572343863,0.1466271269911863,-1.3003889979707028
1.458585776014614,-1.0220785963868835,-0.01678048232423087,0.13430686483216084,-1.249608571067255
1.4547732739163628,-1.0515732822529316,-0.016371709834474325,0.12216866443780014,-1.1914420212655519
1.451062885645873,-1.0782989113112293,-0.01589253599587138,0.11022810998215471,-1.1254733968726869
1.4474719173033646,-1.1023027683713877,-0.01533327567811471,0.09850108184529126,-1.0513335529313708
1.4440201459226603,-1.1236357187555797,-0.014682127632357732,0.08700283453897807,-0.9687405940499612
1.4407304081433974,-1.1423519005035203,-0.013924287839494594,0.07574657196482605,-0.8775576117260845
1.4376294517692876,-1.1585080212194327,-0.013040550196243074,0.06474143426052575,-0.7778710509619515
1.4347492051037816,-1.1721621353524654,-0.012005072982070694,0.053989992983214885,-0.6700889301304492
1.4321287185686913,-1.1833718551670032,-0.010781766453496884,0.043485831491027,-0.5550473476536759
1.4298172167474026,-1.1921921983963557,-0.00931824938379607,0.033212805285968275,-0.43409266416367653
1.4278791252089018,-1.198673863990308,-0.00753472051620827,0.02314950422664821,-0.3090771163240771
1.4264033203030106,-1.2028640435011013,-0.005298365621976943,0.01328683934546045,-0.18218375478462775
1.4255256242554033,-1.2048162311402493,-0.0023337739224352063,0.0036887053428092,-0.05551664161260639
