x,y,v_x,v_y,omega
2.375,32.48,0.0,2.6666666666666665,-3.1020408163265305
2.374319256001982,31.92615125662113,-0.006483276171597461,2.608083270274942,-2.919701054640882
2.372370736024899,31.3843777937968,-0.012074056943483558,2.5516639947186284,-2.7532565281148047
2.3693295924663196,30.85423864871984,-0.016889215042983564,2.497280244109586,-2.600899293907774
2.3653481754789145,30.335318769462795,-0.021029041979921195,2.4448138440527614,-2.46106520506232
2.36055924339244,29.827226942776093,-0.02457983503412349,2.3941559339158096,-2.3323964687452974
2.355078676389561,29.329593938735094,-0.027616041183773622,2.3452060093317963,-2.21371062026532
2.349007777764231,28.842070843334255,-0.03020204096222299,2.2978710897238273,-2.1039747014234456
2.342435231443674,28.364327554892466,-0.032393638281176355,2.2520649906741617,-2.0022836817713676
2.335438771971204,27.89605142396296,-0.034239309075683136,2.2077076848449604,-1.907842355299262
2.328086613131593,27.436946019544962,-0.03578125130156588,2.164724738183591,-1.819950096554651
2.3204386733238196,26.986730006930728,-0.03705627067722582,2.1230468105234013,-1.7379879792515167
2.3125476292413323,26.54513612461031,-0.03809653010836853,2.082609211575821,-1.6614078545550417
2.3044598240930885,26.111910249389158,-0.03893018558919359,2.0433515048160826,-1.5897230610513757
2.2962160522448705,25.68681054032075,-0.039581927250977214,2.0052171529782696,-1.5225004981980348
2.287852238587964,25.269606653272724,-0.04007344091003474,1.9681531998600716,-1.4593538430522899
2.2794000280001585,24.860079018973465,-0.040423802783351045,1.932109983942407,-1.3999377287908898
2.2708872978324846,24.45801817826043,-0.04064981786116317,1.897040879991232,-1.3439427348957749
2.262338604338847,24.06322416899885,-0.04076631064967089,1.8629020653571726,-1.2910910643882114
2.25377557228851,23.67550595978108,-0.04078637554401581,1.829652308145391,-1.2411328043213692
2.245217235602015,23.294680926070683,-0.04072159289879132,1.7972527748107883,-1.1938426828105992
2.236680335680159,22.92057436493467,-0.040582215880792326,1.7656668550559844,-1.1490172499193874
2.2281795831131075,22.55301904492464,-0.04037733237683897,1.734860002182395,-1.106472421304387
2.219727887630093,22.19185478803142,-0.040115005556631125,1.7047995872768253,-1.066041333114925
2.2113365604528608,21.836928080956852,-0.039802396131295575,1.6754547658143064,-1.0275724646087847
2.2030154926264536,21.488091713226407,-0.03944586888210729,1.6467963554280338,-0.9909279915822846
2.1947733124011854,21.145204439913364,-0.039051085644256175,1.6187967237438166,-0.9559823392568659
2.186617524315111,20.808130666963432,-0.03862308660407413,1.5914296853031382,-0.9226209079092073
2.178554632264822,20.476740157302174,-0.03816636149391628,1.5646704067088515,-0.8907389484337529
2.1705902485439714,20.150907756079306,-0.037684912037991875,1.5384953192231974,-0.8602405683128551
2.1627291905651878,19.830513133557076,-0.03718230680756928,1.5128820381313783,-0.8310378512446197
2.1549755667550827,19.515440544286292,-0.0366617294791424,1.4878092882570588,-0.8030500760273441
2.14734358611806,19.205579956214432,-0.036023800397267235,1.4632439314749488,-0.7733516560890368
2.139845752926985,18.90082539987138,-0.03538413475582549,1.4391804146493434,-0.7450591570290419
2.1324822577850493,18.601073420456004,-0.03474439040546785,1.415600341687605,-0.718088995083441
2.125252965410759,18.306224335257724,-0.03410601315920273,1.392486184010289,-0.6923634969517235
2.1181574566495196,18.016182056867095,-0.03347026075736106,1.3698212292338008,-0.6678104158635642
2.111195065740934,17.73085392678331,-0.03283822408631163,1.3475895334688677,-0.6443624925276772
2.10436491338387,17.450150558690538,-0.032210845980962625,1.3257758769385246,-0.621957056322403
2.0976659360764667,17.173985690734057,-0.031588937899072626,1.304365722647,-0.6005356626158507
2.0910969121515626,16.902276046181278,-0.030973194719058832,1.283345177855668,-0.58004376256606
2.084656484878502,16.634941201901263,-0.030364207881517044,1.2627009581444342,-0.5604304021575481
2.078343182958869,16.37190346414113,-0.029762477067367992,1.242420353856861,-0.5416479475873021
2.0721554387057033,16.11308775111791,-0.029168420581831174,1.2224911987452542,-0.5236518344272076
2.066091604162367,15.858421481981612,-0.028582384592801515,1.2029018406480636,-0.5064003382666196
2.060149965387928,15.607834471738684,-0.028004651354239938,1.1836411140464926,-0.4898543647830449
2.0543287551101326,15.361258831755968,-0.02743544652952291,1.1646983143603353,-0.47397725740484725
2.048626163924351,15.118628875493368,-0.026874945716016955,1.146063173854922,-0.458734620921038
2.0430403501968497,14.879881029139213,-0.026323280260185326,1.1277258390417895,-0.44409415956267273
2.0375694488131133,14.644953746845957,-0.025780542442066907,1.1096768494654157,-0.43002552823078943
2.0322115788963226,14.413787430285485,-0.025246790098794967,1.0919071177771842,-0.41650019567951657
2.0269648506073277,14.186324352263277,-0.024722050748776675,1.0744079110057494,-0.40349131858195747
2.0218273711252417,13.962508584148946,-0.024206325271087174,1.0571708329402623,-0.3909736255124765
2.0167972498969937,13.742285926897516,-0.02369959118841857,1.040187807549541,-0.37892330997359625
2.011872603234582,13.52560384545135,-0.023201805596455623,1.0234510633663123,-0.36731793168019905
2.0070515583302924,13.312411406326916,-0.022712907777732078,1.006953118771155,-0.3561363253892787
2.0023322567525845,13.102659218203787,-0.02223282153377254,0.9906867681158068,-0.34535851663112915
1.997716603980448,12.896439767842182,-0.02172577629609759,0.973307997232807,-0.3616294445154207
1.9932043318765036,12.693857774469624,-0.021248243741468147,0.9560443206010714,-0.3798281117017245
1.988789254093624,12.494889405271412,-0.020800116095480242,0.9388925289057081,-0.39984304670840526
1.984465217082448,12.299511488236824,-0.02038118877286264,0.9218495380903493,-0.4215657869307901
1.980226119528333,12.107701486400845,-0.019991168885374704,0.9049123841570671,-0.4448906398186991
1.9760659300731511,11.919437473134991,-0.019629683068738628,0.8880782183748733,-0.4697144514609084
1.9719787034598242,11.734698108403261,-0.01929628467723313,0.8713443028796956,-0.49593638165994575
1.9679585952277103,11.553462615902525,-0.018990460390517095,0.8547080066511166,-0.5234576846039797
1.963999875077993,11.37571076100954,-0.018711636273457455,0.8381668018535179,-0.5521814942598318
1.9600969390200316,11.201422829459101,-0.018459183326176555,0.8217182605315942,-0.58201261362233
1.9562443204021738,11.030579606679769,-0.018232422558181874,0.8053600516525333,-0.6128573069603134
1.9524366999237515,10.863162357714856,-0.0180306296172695,0.7890899384895101,-0.6446230941984813
1.948668914718846,10.699152807657384,-0.017853039000875905,0.7729057763435562,-0.677218546566807
1.9449359665969141,10.538533122527959,-0.01769884787466645,0.7568055106033581,-0.7105530826351598
1.9412330295204354,10.381285890524364,-0.017567219520368813,0.7407871751451537,-0.7445367638298135
1.9375554563954198,10.227394103570969,-0.01745728643216155,0.7248488910776574,-0.7790800885002802
1.9338987852468226,10.076841139094626,-0.017368153078287873,0.7089888658399089,-0.814093783568945
1.9302587448476969,9.929610741951805,-0.017298898341957917,0.6932053926631337,-0.849488592751756
1.9266312598682258,9.785687006429,-0.017248577653003843,0.6774968504111877,-0.8851750602851258
1.9230124556086512,9.645054358234937,-0.017216224819134682,0.661861703817993,-0.9210633090315197
1.91939866237853,9.507697536398865,-0.017200853562973753,0.6462985041446089,-0.9570628117631423
1.915786419583744,9.373601574983933,-0.017201458768321208,0.63080589028331,-0.9930821543388144
1.9121724795822654,9.242751784518344,-0.01721701743623536,0.6153825903413427,-1.0290287893925771
1.9085538113698646,9.115133733039489,-0.017246489348534316,0.6000274237429962,-1.0648087790427523
1.9049276041577883,8.99073322663746,-0.01728881743314561,0.5847393038953772,-1.1003265250060197
1.9012912709059628,8.869536289373997,-0.017342927822334066,0.5695172414709393,-1.1354844843614567
1.897642451877545,8.751529142440852,-0.017407729591169964,0.5543603483685469,-1.1701828690533398
1.8939790182837133,8.63669818240755,-0.01748211415960883,0.5392678424248114,-1.204319327047889
1.8902990760915501,8.525029958392267,-0.017564954337182023,0.5242390529588309,-1.2377886028673075
1.886600970072776,8.416511147970706,-0.01765510298447777,0.5092734272465034,-1.2704821750141364
1.8828832881770794,8.311128531616092,-0.01775139126025064,0.49437053803552516,-1.302287867570427
1.8791448663209631,8.208868965438285,-0.0178526264170481,0.47953009222930454,-1.3330894330109466
1.8753847936915062,8.109719351961008,-0.017957589101588137,0.4647519408876143,-1.3627661030104625
1.8716024186744313,8.013666608642819,-0.018065030108648166,0.45003609071420214,-1.3911921037573758
1.8677973555274994,7.920697633808981,-0.018173666528800394,0.43538271722709887,-1.4182361320181944
1.863969491933792,7.830799269617323,-0.01828217722079482,0.42079217983632294,-1.4437607879431356
1.8601189975851096,7.743958261630443,-0.01838919752855888,0.40626503908633904,-1.4676219603832048
1.856246333963817,7.660161214508879,-0.018493313150418578,0.391802076357133,-1.489668160334427
1.8523522655123577,7.579394543273786,-0.018593053053955245,0.3774043163580509,-1.5097397980813234
1.8484378724037738,7.50164441951301,-0.018686881313511705,0.3630730527921954,-1.527668399746403
1.84450456515439,7.426896711820238,-0.01877318772823855,0.34880987761515253,-1.5432757593632511
1.8405541013520432,7.355136919663039,-0.018850277056015684,0.3346167143581568,-1.556373023419876
1.8365886048106455,7.286350099772388,-0.01891635667158389,0.3204958560290021,-1.566759706272327
1.8326105875055787,7.220520784034832,-0.018969522424290144,0.30645000813820417,-1.5742226372045398
1.828622974695904,7.157632887751891,-0.019007742429753723,0.29248233741362534,-1.5785348436409696
1.8246291337006881,7.097669607014829,-0.019028838477062722,0.27859652674886165,-1.5794543807300336
1.8206329068709355,7.04061330383637,-0.01903046466344064,0.2647968368555042,-1.576723126117077
1.8166386493900926,6.986445377599917,-0.019010082773158295,0.25108817492022273,-1.5700655715344662
1.8126512726516824,6.935146121357242,-0.018964933783129,0.23747617024810835,-1.5591876617695961
1.808676294112849,6.886694561567815,-0.018892004681950694,0.22396725631787642,-1.5437757594117318
1.804719894724169,6.841068280090443,-0.018787989495953724,0.21056875775233555,-1.5234958545590764
1.8007889853157057,6.79824321770791,-0.01864924296560123,0.19728897922418165,-1.4979931982083878
1.79689128372025,6.758193459335967,-0.018471724610165684,0.1841372909847862,-1.4668926246768943
1.7930354050076782,6.720891002561526,-0.018250929795280056,0.17112420210512436,-1.4297999538469253
1.7892309681054557,6.686305513598345,-0.01798180260684163,0.15826140706803601,-1.3863050443449658
1.7854887234809396,6.654404078612618,-0.01765862238854803,0.14556178327223648,-1.3359873249035565
1.7818207087771356,6.6251509643048685,-0.01727485098101503,0.1330393053730098,-1.278424987771359
1.7782404428450502,6.5985074104744115,-0.016822919800751793,0.12070882634563437,-1.2132095076716354
1.774763174354013,6.574431489969314,-0.01629392297103,0.10858565465528083,-1.1399677553798881
1.7714062104645776,6.552878088612491,-0.015677161690258762,0.096684834457317,-1.0583946461389346
1.7681893661161598,6.533799078851455,-0.014959451151816438,0.08502002040968953,-0.9682997789969252
1.765135598777115,6.517143782019179,-0.01412404731527847,0.0736018541834096,-0.8696713098185929
1.762271932538389,6.5028598232267285,-0.013148964482109709,0.062435848601825654,-0.7627581138897838
1.7596308387969777,6.490894452010984,-0.012004309245616952,0.051520067738587826,-0.6481648898310061
1.7572523497364618,6.481196275467994,-0.010647967521200516,0.04084351838514495,-0.5269412718689103
1.755187400436337,6.473717032636728,-0.009018216289513404,0.03038736572214233,-0.40062407846025616
1.753503479169229,6.468412355045519,-0.0070191291115142464,0.020133373241756236,-0.27116840677184506
1.752295836878738,6.465238806809975,-0.0044822260360213445,0.010090895668205174,-0.14069836210125955
1.7517205745283424,6.464136704592793,-0.0009964630153634735,0.0004053159239885921,-0.011078417357418963
