x,y,v_x,v_y,omega
2.375,32.48,0.0,3.5384615384615383,-4.081632653061225
2.3741120373346423,31.850728795178554,-0.009866251837306123,3.4534407373322846,-3.8126752027938076
2.3715835998982566,31.236440135489758,-0.01822749745586806,3.3719888147654284,-3.5703156722484293
2.367665766156837,30.636512973179926,-0.025303988559905254,3.293868544232698,-3.35115341450774
2.3625731098345435,30.050367025008192,-0.0312810816878023,3.218864213231013,-3.152300728228706
2.3564894350258774,29.47745912968974,-0.03631530507515683,3.146779068085136,-2.9712950165903114
2.349572523243309,28.917280030482903,-0.040539270286714335,3.0774331453241466,-2.806027684971202
2.3419580787410776,28.369351519833263,-0.04406566862696476,3.010661417449655,-2.654686271220135
2.3337630201354993,27.83322389454176,-0.04699053810168304,2.9463121969003754,-2.5157071031162777
2.3250882365872783,27.308473678963555,-0.04939594576744099,2.884245753968582,-2.3877363801226825
2.3160209035456973,26.794701580894667,-0.05135219913901504,2.8243331134634904,-2.26959803376003
2.306636434746629,26.291530650518148,-0.05291967640618366,2.766455001831152,-2.1602670706220906
2.2970001326649885,25.798604617392552,-0.0541503467231605,2.7105009217865805,-2.0588473714431403
2.287168588089533,25.3155863842197,-0.05508903744856733,2.656368335689575,-1.9645531285441717
2.2771908702634085,24.842156659210627,-0.05577449395281476,2.6039619421890157,-1.8766932670155403
2.2671095416206186,24.378012711418272,-0.056240268744847735,2.5531930332816013,-1.7946583229595239
2.2569615251646296,23.92286723552975,-0.05651546965503511,2.5039789210352588,-1.7179093531092242
2.2467788476847605,23.47644731439283,-0.05662539123239833,2.4562424249305455,-1.6459685302570723
2.2365892780586427,23.03849346905448,-0.0565920490577991,2.40991141216222,-1.5784111427921177
2.226416876664527,22.608758787365332,-0.05643463309903942,2.364918384383885,-1.5148587677920045
2.2162824692838274,22.18700812329182,-0.056169893353176764,2.3212001053217812,-1.4549734282561604
2.2062040566997987,21.773017360010698,-0.0558124686915907,2.2786972644685104,-1.3984525782973611
2.1961971694036646,21.36657273066336,-0.055375167932118344,2.237354172724099,-1.3450247870576795
2.1862751753338014,20.967470191341807,-0.05486921062191818,2.1971184864042796,-1.294446014053026
2.1764495473398435,20.57551484148015,-0.054304433755391776,2.1579409565030265,-1.2464963865752356
2.1667300960361686,20.19052038735048,-0.05368946961877591,2.1197752004932653,-1.2009774044778156
2.1571251728511642,19.812308644820135,-0.05303189910349194,2.0825774942883606,-1.1577095097630972
2.147641847360203,19.44070907792924,-0.05233838412941139,2.0463065822771567,-1.116529968369029
2.138286062387028,19.075558370200753,-0.05161478223920052,2.0109235035949498,-1.0772910198177876
2.1290627698505724,18.716700025906466,-0.05086624594363867,1.9763914330082124,-1.0398582572517996
2.1199760499058806,18.363983998787752,-0.050097308997383384,1.9426755349775053,-1.0041092060998167
2.1110292155655594,18.01726634597351,-0.049311961450629604,1.9097428296251433,-0.9699320743913741
2.102224904681153,17.67640890505446,-0.04851371504276983,1.8775620694754827,-0.9372246517383105
2.0935651609030055,17.341278992465337,-0.04770566026998228,1.846103625959178,-0.9058933373618704
2.0850515050151373,17.011749121498724,-0.046890516261889996,1.8153393847809567,-0.8758522803731198
2.0766849978522646,16.687696738427345,-0.04607067443669377,1.7852426493454994,-0.8470226179027824
2.068466295844177,16.369003975349475,-0.04524823676427747,1.7557880515197146,-0.8193317986977797
2.060395700094033,16.05555741849518,-0.044425049348433145,1.7269514690835455,-0.7927129815162466
2.052473199778162,15.747247890841852,-0.04360273193902429,1.6987099492867752,-0.7671044991105036
2.0446985105526787,15.443970247987195,-0.04278270389968087,1.671041637987185,-0.7424493798296399
2.03707110856414,15.145623186317636,-0.041966207084081567,1.643925713896828,-0.7186949199341943
2.0295902605854907,14.852109062591119,-0.041154326012019266,1.6173423275089085,-0.6957923006233199
2.022255050732886,14.56333372412665,-0.04034800568359407,1.5912725443185225,-0.6736962445534478
2.0150644041621444,14.279206348859162,-0.039548067324639696,1.5656982919868943,-0.6523647072965876
2.008017108094334,13.999639294578525,-0.038755222317698325,1.540602311131289,-0.631758599762563
2.001111830477183,13.724547956726035,-0.03797008453953933,1.515968109451922,-0.611841538106545
1.9943471365518448,13.453850634171364,-0.037193181297548686,1.491779918933329,-0.5925796180728897
1.9877256368436167,13.187469238739691,-0.03637903768276477,1.4680133636408026,-0.5726835565233004
1.9812492369189718,12.925328291231107,-0.03558096147995664,1.4446638308990336,-0.5536243493173503
1.9749150502696642,12.667353974849025,-0.03479889017901627,1.421717462235214,-0.5353574440399038
1.9687202053048454,12.413474914937915,-0.03403272054119316,1.399160981221552,-0.5178411075213337
1.9626618521568302,12.163622076992322,-0.03328231443675354,1.376981662618351,-0.5010362188887374
1.9567371684985808,11.917728670045438,-0.03254750398823749,1.3551673034581335,-0.48490607984197065
1.9509433644905667,11.675730055100594,-0.031828096100807834,1.3337061959290364,-0.4694162405546838
1.9452776869608754,11.43756365829351,-0.031123876451318443,1.3125871019274675,-0.45453433976425633
1.9397374229103366,11.203168888495576,-0.030434612999113278,1.29179922916068,-0.44022995775995877
1.9343199024237532,10.972487059089051,-0.029760059074035252,1.2713322086896077,-0.42647448110804753
1.9290225010589421,10.745461313663984,-0.029099956090531995,1.251176073811119,-0.4132409780677267
1.9238426417770067,10.522036555404167,-0.02845403593097079,1.2313212401868547,-0.4005040837546695
1.9187777964699604,10.302159379945369,-0.02782202303621092,1.211758487133126,-0.3882398942005378
1.9138254871353682,10.085778011504019,-0.027203636237036647,1.1924789399930025,-0.3764258685389504
1.9089832867419814,9.872842242088044,-0.026598590356148685,1.1734740535178054,-0.36504073862174397
1.9042488198253,9.663303373614273,-0.026006597606977787,1.15473559619077,-0.3540644254351279
1.8996197628475415,9.457114162768338,-0.025427368812561274,1.136255635430727,-0.34347796174431183
1.8950938443525556,9.254228768453924,-0.024860614465060618,1.1180265236183018,-0.33326342044814433
1.8906688449427267,9.05460270168805,-0.024306045644150547,1.1000408848913907,-0.3234038481728996
1.8863425971018137,8.858192777808373,-0.02376337481043871,1.0822916026605829,-0.31388320367718253
1.882112984884932,8.664957070867029,-0.023232316488245874,1.064771807798783,-0.30468630067850133
1.8779779434944484,8.474854870093505,-0.02271258785046019,1.0474748674625853,-0.29579875474683964
1.8739354587583996,8.287846638316335,-0.022203909216749664,1.030394374505977,-0.2872069339419537
1.8699835665261286,8.103893972240321,-0.02170600447515198,1.0135241374497392,-0.2788979128994801
1.8661203519941303,7.922959564482323,-0.02121860143594077,0.9968581709724786,-0.270859430096584
1.862348036302571,7.745224535257837,-0.020696017359160348,0.9779754870773677,-0.31102283262958225
1.8586657884062143,7.57087921036117,-0.02021784815591395,0.9591947895522468,-0.35232934078245076
1.8550657451561974,7.3999054595734215,-0.01978263239983092,0.9405135525338627,-0.3946795175234735
1.8515403075575285,7.232285598575949,-0.019388896474266504,0.9219293474380492,-0.4379752548652595
1.84808214272589,7.06800237165513,-0.019035157210605645,0.9034398405710364,-0.4821195573963946
1.8446841853975597,6.907038934806327,-0.018719924215285653,0.8850427910823288,-0.527016326409816
1.8413396390469163,6.749378839175456,-0.018441701902972958,0.8667360492606702,-0.5725701436712276
1.8380419766630707,6.5950060147760325,-0.01819899125086942,0.8485175551773844,-0.6186860538427158
1.8347849412346893,6.4439047544184795,-0.017990291286700506,0.8303853376843289,-0.6652693445402539
1.8315625459900389,6.296059697786969,-0.017814100320526997,0.8123375137768867,-0.7122253229584334
1.8283690744376626,6.151455815596819,-0.017668916928098945,0.7943722883358829,-0.75945908794082
1.8251990802519429,6.01007839376264,-0.017553240691008942,0.7764879542661174,-0.806875296309017
1.8220473870470784,5.871913017503882,-0.017465572696373284,0.7586828930534074,-0.8543779221869039
1.8189090880827519,5.736945555310069,-0.017404415796143963,0.7409555757667234,-0.9018700079675587
1.8157795459449928,5.605162142682712,-0.017368274623398836,0.7233045645372473,-0.9492534054679147
1.812654392246484,5.47654916556467,-0.017355655360035544,0.7057285145521011,-0.9964285056989278
1.8095295273918355,5.351093243360335,-0.01736506524716712,0.6882261766071898,-1.0432939555455358
1.806401120455238,5.22878121144128,-0.017395011826139464,0.6707964002712166,-1.0897463594994288
1.8032656092203883,5.109600103021926,-0.0174440018944138,0.65343813772161,-1.1356799644169944
1.8001197004358036,4.9935371302779075,-0.017510540156525384,0.6361504483230389,-1.180986325083082
1.7969603703425872,4.880579664566081,-0.017593127545881253,0.6189325040305856,-1.2255539481467772
1.7937848655365176,4.770715215589181,-0.01769025918822398,0.6017835957127375,-1.2692679117566625
1.7905907042320899,4.663931409329635,-0.017800421972086103,0.584703140504426,-1.3120094579588037
1.787375678002916,4.560215964555642,-0.01792209168540011,0.5676906903176993,-1.3536555546301952
1.784137854080884,4.459556667677862,-0.0180537296705087,0.5507459416576159,-1.3940784234037653
1.7808755783057566,4.361941345706416,-0.01819377894202038,0.5338687469139958,-1.4331450296997978
1.7775874788276922,4.2673578370248,-0.018340659703140236,0.5170591273261973,-1.47071653061639
1.7742724706776591,4.175793959659071,-0.018492764186115816,0.500317287848582,-1.5066476760552387
1.770929761335111,4.087237476676567,-0.018648450731087104,0.48364363417926304,-1.540786158080211
1.7675588574388903,4.0016760582975195,-0.01880603700469703,0.4670387922545917,-1.5729719031435412
1.7641595728064143,3.9190972402444757,-0.018963792245036602,0.450503630557016,-1.6030363014970517
1.7607320379481326,3.839488377787223,-0.019119928402537695,0.434039285634696,-1.630801367877579
1.757276711289486,3.762836594864222,-0.019272590026868056,0.4176471912875256,-1.6560788274827314
1.7537943923416215,3.6891287275741576,-0.019419842727182682,0.4013291119353951,-1.6786691214329963
1.7502862370955894,3.6183512612325472,-0.01955966000650649,0.3850871807491557,-1.698360326493226
1.7467537759534455,3.5504902600780355,-0.019689908239537545,0.36892394318985394,-1.7149269850123374
1.7431989345546115,3.485531288591357,-0.01980832952528358,0.3528424066621134,-1.728128843144903
1.739624057908384,3.423459323258701,-0.019912522099467048,0.33684609703405727,-1.737709498896492
1.7360319383054459,3.3642586534741667,-0.0199999179331773,0.32093912279410874,-1.7433949670515136
1.7324258475552923,3.307912770140444,-0.02006775706853098,0.3051262475805954,-1.744892176573279
1.7288095741864602,3.254404240405588,-0.02011305814071484,0.28941297169559893,-1.741887429042206
1.725187466358233,3.203714566888312,-0.020132584395142938,0.2738056229407849,-1.7340448662216934
1.7215644813750985,3.155824029729814,-0.02012280430635037,0.25831145659806504,-1.7210050240015209
1.717946242883077,3.11071150992278,-0.02007984560500076,0.2429387634800866,-1.7023835933030476
1.7143391070832261,3.0683542926965544,-0.019999441060007568,0.22769698347797024,-1.6777705726868746
1.7107502396600314,3.028727850418747,-0.019876863642156357,0.21259681960876697,-1.6467300920673604
1.707187705653451,2.991805605718689,-0.0197068475420701,0.19765034372522305,-1.6088013260680436
1.7036605753071261,2.957558677665535,-0.01948348963932007,0.18287107908758454,-1.563501118872073
1.7001790501756826,2.9259556173144965,-0.019200122932272464,0.1682740359239674,-1.5103292368250816
1.6967546157632483,2.896962144443446,-0.01884914831700047,0.15387566264327035,-1.4487775847817483
1.693400230183301,2.8705409057566342,-0.018421802571299693,0.1396936560990748,-1.3783453047998704
1.690130563595774,2.8466512873595633,-0.017907826179003477,0.1257465483128269,-1.2985624464862748
1.6869623118477253,2.8252493319987053,-0.017294971021537334,0.11205295569672377,-1.2090258261934008
1.6839146220366237,2.8062878346639053,-0.01656824910181334,0.09863034802329462,-1.1094515844789867
1.6810096911984367,2.78971671604517,-0.015708760211375808,0.08549319218488884,-0.9997492250269381
1.6782736377137095,2.7754837919973845,-0.014691834063369574,0.07265040834605732,-0.8801201798722438
1.6757378079761613,2.763536042505976,-0.013484051909386723,0.06010236378070753,-0.7511774198492603
1.673440788148623,2.7538213798423072,-0.012038390618816446,0.04783833248227064,-0.6140670475611807
1.6714315989525046,2.7462906204266204,-0.0102859337825022,0.03583677213646544,-0.47054482387070373
1.669775076779496,2.74089869844639,-0.00811986813981144,0.024073472088309518,-0.3229258498497335
1.6685623237870546,2.737602598885413,-0.005355165109539855,0.012549856366979908,-0.17380896682944394
1.667939817907245,2.736346981961823,-0.0015615668883440202,0.0014014427840312316,-0.025536189177523955
