x,y,v_x,v_y,omega
2.375,32.48,0.0,2.6153846153846154,-5.428571428571429
2.373614819284132,31.8855265340885,-0.012045049703198238,2.553949870802315,-5.0868132122262795
2.369660847066059,31.304894673659007,-0.022337317410482185,2.495022828584579,-4.777113531718833
2.3635131509315257,30.737547242934582,-0.031120909846328662,2.438433090758247,-4.495547634889442
2.355494922224746,30.182964334646954,-0.03860281803870996,2.384026981308087,-4.238763157827733
2.3458852900178986,29.64065972408942,-0.04495920115126793,2.3316652844095955,-4.003884202342186
2.3349258265545676,29.11017775784813,-0.05034048113857007,2.28122137855814,-3.788433570778751
2.322825988723551,28.591090635785477,-0.054875500000705374,2.23257968285623,-3.5902693149114397
2.309767689059078,28.08299602178063,-0.05867493186427483,2.1856343519685395,-3.4075326583713594
2.2959091505994436,27.58551493162715,-0.061834098219504446,2.1402881711052055,-3.238605021266774
2.281388169589369,27.098289856409078,-0.06443530186809775,2.0964516133997475,-3.0820723772804977
2.2663248862808323,26.620983087385316,-0.06654977038004996,2.054042030285145,-2.936695553426325
2.250824145376701,26.153275214457565,-0.06823928096022197,2.0129829516952893,-2.8013853730501106
2.234977512799152,25.69486377508121,-0.06955752406194293,1.9732034776643148,-2.6751817665668267
2.218865003579217,25.245462034296995,-0.07055125176357732,1.934637746546269,-2.5572361484256954
2.202556566100266,24.804797879634652,-0.07126124805338846,1.8972244679088874,-2.4467964950001484
2.1861133601898595,24.372612817132634,-0.07172315116754023,1.8609065103695355,-2.3431946654360396
2.169588860260608,23.948661056755647,-0.07196815256507982,1.8256305363868666,-2.245835592606564
2.1530298095574683,23.53270867716921,-0.07202359267961243,1.7913466774082223,-2.1541880392076838
2.1364770473474577,23.124532861220807,-0.07191347001613296,1.7580082438822482,-2.067776668464103
2.1199662274087454,22.723921194637214,-0.0716588772770172,1.7255714655402952,-1.9861752227881138
2.1035284432979418,22.330671021421374,-0.07127837586040531,1.6939952580756723,-1.9090006392597576
2.0871907734848696,21.9445888502543,-0.07078831816630952,1.6632410129423862,-1.835907959692762
2.070976757453547,21.56548980690549,-0.07020312558432357,1.6332724074820506,-1.7665859166529398
2.0549068122046403,21.193197128251153,-0.06953552875399395,1.6040552329904154,-1.7007530961507413
2.0389985972003415,20.827541694010215,-0.06879677563121121,1.5755572386699401,-1.638154593661673
2.023267334620576,20.468361592748245,-0.06799681201892649,1.547747989694981,-1.5785590932897728
2.007726090811563,20.115501719080378,-0.0671444384942277,1.5205987378516925,-1.5217563107992795
1.9923860239729203,19.768813399334853,-0.06624744705918753,1.4940823034137374,-1.4675547503127524
1.9772856619569652,19.428159162271385,-0.06506004873172523,1.4681284536599177,-1.4090587323837376
1.9624592189523589,19.093406944283878,-0.06386554261267907,1.4427603984053716,-1.3535670107585547
1.9479078696780445,18.76442469501447,-0.06266792933788035,1.4179548126329258,-1.3008862633183014
1.93363193005995,18.44108558994976,-0.06147067603685397,1.3936895792341166,-1.2508379684914044
1.9196309725964893,18.123267761665353,-0.06027678016715231,1.3699437101955314,-1.2032570936846199
1.9059039279352856,17.81085404848657,-0.0590888255824441,1.3466972739677876,-1.1579909153774708
1.8924491743332952,17.503731759208847,-0.05790903182616855,1.3239313284471894,-1.11489795614008
1.8792646164598321,17.201792452645435,-0.0567392975082939,1.301627859060748,-1.0738470256526158
1.8663477548179848,16.904931730881117,-0.05558123850776951,1.2797697214985462,-1.0347163543779965
1.8536957469004536,16.61304904521008,-0.05443622164467505,1.258340588684384,-0.9973928099038191
1.841305461057458,16.32604751382541,-0.05330539438137507,1.2373249016170904,-0.9617711871547904
1.8291735239341027,16.043833750408016,-0.05218971103910407,1.2167078237515712,-0.9277535647086881
1.8172963622299432,15.766317702835149,-0.051089955953588555,1.1964751986211863,-0.8952487203486129
1.8056702394422857,15.493412501294038,-0.05000676393908499,1.1766135104319464,-0.8641715997702987
1.794291288175208,15.22503431514512,-0.048940638383330314,1.1571098473847459,-0.834442833051095
1.783155538526764,14.961102217932822,-0.047891967255311946,1.1379518675047895,-0.8059882940901958
1.7722589430060574,14.701538059990316,-0.04686103727257221,1.119127766777868,-0.7787386987590975
1.7615973983786275,14.446266348128539,-0.04584804644420863,1.1006262494114833,-0.7526292379668502
1.751166764791939,14.195214131939863,-0.04485311517917045,1.0824365000552651,-0.7275992422547369
1.7409628824918062,13.948310896283072,-0.04387629612633106,1.0645481578298905,-0.7035918748967507
1.7309815864046216,13.705488459549532,-0.042917582892665736,1.0469512920269908,-0.6805538508017975
1.7212187188286125,13.46668087734066,-0.04197691776828058,1.0296363793544878,-0.6584351787962668
1.7116701404495176,13.231824351214446,-0.04105419857167739,1.0125942826125887,-0.6371889251160657
1.702331739871526,13.000857142184028,-0.04014928471520386,0.9958162306953995,-0.6167709961594072
1.693207344708728,12.773828116113847,-0.03919328191782406,0.9783492133931273,-0.6162251084192687
1.6842988010495596,12.550801065738568,-0.03827231511842143,0.9610164420440965,-0.6183226962063219
1.6755980255206886,12.331745589125564,-0.03738660252393475,0.9438137893733296,-0.6229211948934149
1.6670969015490995,12.116632213301799,-0.03653621462031936,0.9267373047463595,-0.6298829453574488
1.6587873118181826,11.905432354630367,-0.03572108738765246,0.9097832054400081,-0.6390748463299021
1.6506611678078302,11.698118281119438,-0.0349410344415011,0.8929478685680857,-0.6503680224513122
1.6427104366560499,11.494663076517398,-0.034195758182674875,0.8762278236235675,-0.6636375065313301
1.634927165561511,11.295040606056357,-0.03348486003070639,0.8596197456028827,-0.6787619345958235
1.6273035039298125,11.099225483713617,-0.032807849810151675,0.8431204486818011,-0.6956232523717367
1.619831723451047,10.907193040867366,-0.0321641543530238,0.8267268804160512,-0.7141064319196143
1.612504236282288,10.718919296228542,-0.03155312537531806,0.8104361164432933,-0.7340991971733335
1.6053136114958562,10.53438092693592,-0.030974046680610514,0.7942453556664428,-0.7554917571870522
1.5982525899425926,10.353555240705592,-0.030426140739071763,0.7781519159016234,-0.7781765459209254
1.5913140976687212,10.17642014892952,-0.029908574685897086,0.7621532299772613,-0.802047967419954
1.5844912580152495,10.002954140620616,-0.029420465779074895,0.7462468422740627,-0.8270021452544929
1.5777774025201108,9.833136257103732,-0.02896088635256544,0.7304304056988602,-0.8529366750964378
1.5711660807353756,9.66694606735317,-0.02852886829730703,0.7147016790886398,-0.879750379301838
1.5646510690648028,9.50436364387786,-0.028123407098977107,0.6990585250444848,-0.9073430623584496
1.5582263787207413,9.345369539054886,-0.02774346545807928,0.6834989081987628,-0.9356152660352581
1.5518862628938748,9.18994476181092,-0.027387976514674627,0.6680208939226748,-0.9644680230398874
1.5456252232245442,9.038070754548997,-0.027055846696895917,0.6526226474853527,-0.9938026079486058
1.539438015660338,8.889729370214972,-0.02674595820924595,0.6373024336800734,-1.0235202841217623
1.533319655781316,8.744902849393899,-0.026457171173554204,0.6220586169379569,-1.0535220452543141
1.5272654236716408,8.603573797321236,-0.026188325432316677,0.606889661954777,-1.0837083501358848
1.5212708684145166,8.465725160687263,-0.025938242020937204,0.5917941348623631,-1.1139788491067473
1.5153318122862185,8.331340204105096,-0.02570572431208787,0.5767707049825829,-1.144232100594406
1.5094443547246517,8.200402486103041,-0.025489558831971536,0.5618181472092075,-1.1743652759991994
1.5036048761483394,8.072895834490794,-0.02528851574465784,0.5469353450712008,-1.2042738510657394
1.4978100417030684,7.948804320935473,-0.025101348996827883,0.5321212945402893,-1.233851281729344
1.492056805015651,7.828112234567872,-0.024926796111150146,0.5173751086562473,-1.262988662262379
1.4863424120374815,7.71080405442104,-0.02476357761206247,0.5026960230553497,-1.2915743633645154
1.4806644050648625,7.596864420482042,-0.024610396062887185,0.4880834025011393,-1.3194936476437826
1.4750206270285235,7.486278103113204,-0.0244659346878845,0.4735367485322516,-1.3466282597233499
1.4694092261515155,7.379029970570617,-0.024328855546968762,0.45905570835980986,-1.3728559879850162
1.4638286610828224,7.275104954315019,-0.024197797224275605,0.4446400851671177,-1.398050194729226
1.4582777066238175,7.174488011772258,-0.02407137198446119,0.43028984998731373,-1.422079311300912
1.4527554601762285,7.07716408615725,-0.023948162342402116,0.4160051553605788,-1.444806294512714
1.4472613490538437,6.983118062925598,-0.02382671698268211,0.40178635100161336,-1.466088040510525
1.4417951388160453,6.89233472236025,-0.023705545954695782,0.3876340017405406,-1.4857747520981393
1.4363569427996872,6.804798687735939,-0.02358311505711245,0.3735489080360714,-1.5037092555081482
1.4309472330472983,6.7204943684309875,-0.02345783931148675,0.35953212939829693,-1.5197262627335084
1.4255668528544971,6.639405897273804,-0.023328075408522803,0.3455850110989571,-1.5336515759030542
1.4202170311885216,6.561517061319833,-0.02319211299126481,0.33170921458774244,-1.54530123091682
1.4148993992636403,6.486811225154064,-0.02304816461639981,0.3179067520711224,-1.5544805788295777
1.4096160095989951,6.415271245705743,-0.0228943542066007,0.3041800257403602,-1.560983305537202
1.4043693579315208,6.346879377448381,-0.022728703771438968,0.29053187214972953,-1.5645903935458916
1.399162408412988,6.281617166744507,-0.02254911812884803,0.27696561223179406,-1.5650690345157772
1.3939986225888132,6.21946533398982,-0.02235336729875769,0.26348510737417863,-1.562171508628076
1.3888819927412834,6.160403642130063,-0.022139066158023694,0.2500948218411082,-1.5556340577261991
1.383817080287716,6.104410750089325,-0.021903650829517687,0.2367998915566207,-1.5451757952114547
1.3788090600647176,6.05146404969782,-0.021644351109601213,0.22360619880429136,-1.530497719122838
1.3738637715185922,6.001539484897357,-0.02135815798713992,0.21052045163452326,-1.5112819289986348
1.3689877780836999,5.954611352421484,-0.021041784924967232,0.1975502655469679,-1.4871911967444587
1.364188436404422,5.9106520839270935,-0.020691620981797873,0.1847042430999007,-1.4578691135688875
1.3594739776058242,5.869632010892854,-0.020303672919050587,0.17199204415434396,-1.4229411385763087
1.354853603645875,5.8315191157882005,-0.01987349195007463,0.15942443501655343,-1.3820170228206385
1.3503376030555114,5.796278776472096,-0.01939607840091193,0.14701329816697017,-1.3346952925585973
1.3459374923644296,5.763873516082523,-0.01886575369545211,0.13477157478585175,-1.2805707675980609
1.3416661926629065,5.734262778580828,-0.018275982839531826,0.12271309914194495,-1.2192464852091052
1.3375382557782947,5.707402761496013,-0.017619120504919983,0.11085226681295365,-1.1503519052358238
1.3335701625910525,5.6832463530226285,-0.016886037645011107,0.09920345904256454,-1.0735698543718883
1.3297807288745649,5.6617432403864605,-0.01606555988966427,0.08778012909801554,-0.988675185260375
1.3261916744877211,5.642840277747968,-0.015143608691586527,0.07659345906278729,-0.8955881941270543
1.3228284440399205,5.6264822163641774,-0.014101873463200658,0.06565055297018532,-0.7944445966081577
1.3197214182052692,5.612612886517468,-0.01291574249028904,0.05495231526205882,-0.6856796715475044
1.3169077383950079,5.601176837313453,-0.011551038468505108,0.044491590859811525,-0.5701146234979007
1.3144341212004598,5.592121211583368,-0.009958676266694924,0.03425298070612788,-0.44901637068608247
1.31236139864596,5.585397133818237,-0.00806499812026109,0.02421726072979432,-0.324080617094327
1.3107726718167407,5.58095881755478,-0.00575001778599241,0.014376793735035838,-0.19727533818715964
1.309792286839834,5.57875519015143,-0.002775068969718455,0.0047851836853927444,-0.0705004513250595
