x,y,v_x,v_y,omega
2.375,32.48,0.0,2.4615384615384617,-6.040816326530612
2.373938897366038,31.992728481201176,-0.010611026339622312,2.4111767264497606,-5.722260068993831
2.3708870718923207,31.515358434406338,-0.019907228397549097,2.362523741498616,-5.428321133521369
2.3660920710052977,31.047558154912007,-0.028042780472680745,2.3154790534446685,-5.156477558895002
2.3597725930439886,30.589015160725513,-0.03515199914040841,2.26995088842029,-4.9045186443817315
2.3521221708063305,30.139434561191617,-0.04135222323617587,2.2258551069186567,-4.670500361136133
2.3433123264222138,29.698537618382673,-0.04674622060498802,2.1831143211707906,-4.452708054651505
2.3334952833777365,29.26606047179997,-0.051424209839787176,2.1416571446562243,-4.2496250911631614
2.322806305729653,28.841753002344458,-0.05546556664104796,2.101417549898928,-4.059906379695311
2.311365722043009,28.425377815793148,-0.05894027022539296,2.062334315614158,-3.8823559162133945
2.299280681595479,28.016709329424852,-0.06191013424990326,2.0243505480687864,-3.715907663234357
2.2866466823522678,27.61553294817076,-0.06442985818221174,1.9874132644721618,-3.5596092089794733
2.2735489036999574,27.221644318870634,-0.06654792834088831,1.9514730285290844,-3.412607753331107
2.2600633716137493,26.834848653006578,-0.06830739252119751,1.9164836301114692,-3.274138049853569
2.246257979573015,26.45496010975011,-0.0697465278861428,1.882401802453225,-3.1435119987303954
2.23219338494428,26.08180123236192,-0.07089941840120591,1.8491869714286748,-3.020109638257372
2.217923797569978,25.715202431978774,-0.07179645534181858,1.8168010324027914,-2.903371325253317
2.2034976748190753,25.355001513649416,-0.07246477216720316,1.7852081508907778,-2.7927909295113027
2.1889583352796813,25.001043240173054,-0.0729286232267407,1.7543745838728246,-2.6879098958359497
2.174344501530664,24.653178929875136,-0.07320971426343101,1.7242685191063738,-2.588312050561521
2.1596907809603856,24.31126608494594,-0.07332749143935378,1.6948599301855702,-2.493619048710434
2.1450280923584373,23.975168047384035,-0.07329939458012961,1.666120445433489,-2.4034863739124614
2.1303840449524687,23.64475367994158,-0.07314107947955588,1.6380232289910668,-2.317599816479343
2.115783275665481,23.31989706977263,-0.07286661339031789,1.6105428726984194,-2.235672366110445
2.1012477496037762,23.00047725274698,-0.07248864722673087,1.5836552975580798,-2.1574414649870253
2.086797028131046,22.686377956617914,-0.07201856750056931,1.5573376637325724,-2.0826665748133157
2.0724485083225104,22.377487361428038,-0.07146663058479015,1.5315682881661994,-2.0111270179388714
2.0582176371101277,22.073697875707676,-0.07084208153903684,1.5063265690374048,-1.9426200582571742
2.0441181030137887,21.774905927169215,-0.07015325942435285,1.48159291634722,-1.8769591922905386
2.030176246221643,21.48101749986764,-0.06926530849710462,1.4572913566685166,-1.8096191984781573
2.0164149392494757,21.191941903879798,-0.06834776122456689,1.4334646032099179,-1.7453559190476158
2.002839613862819,20.907585888461846,-0.0674054926420002,1.41009555096959,-1.68399222635624
1.9894547781869596,20.627859544167592,-0.06644286411659323,1.3871678919729415,-1.6253631299487692
1.976264114217252,20.352676148178112,-0.06546377558048547,1.3646660679218543,-1.5693148117272309
1.9632705654355922,20.08195201876054,-0.06447171223611223,1.342575226253889,-1.5157037482000737
1.9504764155764536,19.815606378203178,-0.06346978635527349,1.3208811793197195,-1.464395911020457
1.9378833594690636,19.553561223629593,-0.06246077471862416,1.299570366416145,-1.4152660380047117
1.9254925667794809,19.295741205144196,-0.06144715217720377,1.2786298184378038,-1.3681969676830736
1.9133047393856766,19.042073510807057,-0.060431121760840055,1.2580471249335732,-1.3230790311918172
1.9013201630387289,18.792487757976303,-0.05941464170863836,1.2378104033739825,-1.2798094959825852
1.8895387538925308,18.546915890593496,-0.05839944975334204,1.217908270454081,-1.2382920564127442
1.8779601004218676,18.305292082020852,-0.05738708495328924,1.1983298152723827,-1.1984363668000921
1.8665835011933096,18.067552643069515,-0.056378907332290604,1.1790645742409867,-1.1601576129848814
1.8554079989042405,17.833635934885923,-0.05537611555840152,1.160102507594931,-1.1233761188494045
1.8444324110617267,17.60348228638838,-0.0543797628667369,1.1414339773804854,-1.0880169846067942
1.8336553576341803,17.37703391596908,-0.05339077140872576,1.123049726812555,-1.0540097539918356
1.8230752859742942,17.154234857197743,-0.05240994519013607,1.1049408609007885,-1.0212881077723406
1.8126904932810324,16.935030888282412,-0.051437981742480904,1.0870988282524956,-0.9897895812542378
1.8024991468411091,16.71936946506035,-0.050475482656752196,1.0695154039681531,-0.9594553036806678
1.7924993022659774,16.507199657308313,-0.04952296309456583,1.052182673552234,-0.9302297576282581
1.7826889199185687,16.298472088176247,-0.04858086037951994,1.0350930177683868,-0.9020605566852047
1.773065879704549,16.093138876562037,-0.047649541760676664,1.0182390983737066,-0.8748982398582537
1.7636279943854407,15.891153582257463,-0.046729311430408704,1.0016138446720264,-0.8486960813013231
1.7543730215553737,15.69247115370717,-0.045820416870260075,0.9852104408308785,-0.823409914089214
1.7453063089629348,15.497240040374795,-0.0448467090541282,0.9671006924928904,-0.8371641523051913
1.7364302513712078,15.30561915916191,-0.043913866863141256,0.9491081196359573,-0.8528530640802744
1.7277367514976336,15.117585397848757,-0.04302113187260292,0.9312294934955704,-0.8703542406935156
1.7192178707912014,14.933116276621849,-0.04216767519171891,0.9134617187734931,-0.8895482712916505
1.7108658428346029,14.752189921885986,-0.0413526043742661,0.8958018285851423,-0.9103184707741613
1.7026730854233572,14.574785041040435,-0.04057496973818971,0.878246979870369,-0.9325506149935828
1.6946322114359942,14.400880898128122,-0.03983377013544143,0.8607944492527795,-0.9561326821580154
1.68673603860148,14.230457290269268,-0.03912795820969969,0.8434416293357481,-0.9809545993440462
1.678977598262895,14.063494524793064,-0.038456445176151884,0.8261860254262778,-1.0069079930416516
1.6713501432298559,13.899973396982347,-0.037818105154238245,0.8090252526809043,-1.0338859426581806
1.6638471548063187,13.739875168347162,-0.037211779081133135,0.7919570336709413,-1.061782735906137
1.656462349075131,13.583181545343308,-0.03663627823074603,0.7749791963675787,-1.090493624989043
1.6491896825160426,13.429874658451482,-0.03609038736013666,0.7580896725506978,-1.1199145824809682
1.6420233570297857,13.279937041531529,-0.035572867502431986,0.7412864966488185,-1.1499420557680637
1.6349578244372842,13.133351611364507,-0.0350824584225819,0.7245678050213847,-1.1804727188842805
1.627987790520069,12.990101647292501,-0.0346178807495709,0.7079318356986802,-1.211403220527971
1.621108218665513,12.850170770862722,-0.03417783779598827,0.6913769285991147,-1.2426299269907743
1.6143143331786018,12.713542925377961,-0.033761017073122575,0.6749015262484942,-1.2740486586645392
1.6076016223205938,12.580202355249984,-0.03336609150695942,0.6585041750312685,-1.3055544187154788
1.6009658411341383,12.450133585045883,-0.03299172035759386,0.6421835270097245,-1.3370411124266957
1.5944030141142203,12.323321398109535,-0.0326365498415886,0.6259383423537602,-1.3684012556100955
1.5879094377846932,12.199750814631024,-0.03229921345368096,0.6097674924313455,-1.399525670376055
1.5814816832412324,12.079407069026072,-0.03197833198092728,0.5936699636181786,-1.430303166423646
1.5751165987232567,11.962275586474803,-0.03167251319883058,0.5776448618945229,-1.460620205875679
1.5688113122798555,11.848341958454558,-0.03138035123517961,0.5616914183079099,-1.4903605495315624
1.5625632345980196,11.737591917084519,-0.031100425583181705,0.5458089953924989,-1.5194048822478938
1.5563700620656074,11.630011308080313,-0.03083129974093921,0.5299970946495755,-1.5476304149835252
1.5502297801465803,11.52558606209444,-0.030571519449331733,0.5142553652091495,-1.5749104608656463
1.5441406671521625,11.424302164192518,-0.030319610494845727,0.4985836138100839,-1.6011139824510625
1.5381012984989033,11.326145621185926,-0.03007407603774676,0.48298181625584,-1.6261051071798214
1.5321105515532176,11.231102426507846,-0.029833393419108945,0.4674501305249482,-1.6497426078579154
1.5261676111720601,11.13915852228137,-0.02959601039246661,0.4519889117398194,-1.6718793448784575
1.5202719760611068,11.050299758184934,-0.02936034071706961,0.4365987292245289,-1.6923616668204777
1.5144234660854303,10.964511846671321,-0.02912475903969402,0.4212803859115943,-1.7110287660857704
1.5086222306834203,10.88178031404125,-0.028887594980406828,0.4060349403891202,-1.7277119863962904
1.5028687585529563,10.802090446811121,-0.028647126324233545,0.39086373191215884,-1.7422340793475548
1.4971638888000514,10.72542723274648,-0.02840157120481539,0.37576840873424144,-1.7544084078968756
1.491508823764856,10.65177529585863,-0.028149079147137292,0.36075096014426156,-1.7640380958001372
1.4859051437688222,10.581118824582585,-0.027887720813200744,0.34581375261619546,-1.7709151237971976
1.4803548240609476,10.513441492272147,-0.027615476265544225,0.330959570488182,-1.7748193760672497
1.47486025428175,10.448726369065984,-0.02733022152643274,0.31619166157345946,-1.7755176445335379
1.469424260812929,10.386955824103275,-0.02702971316177803,0.3015137880536414,-1.7727626045621054
1.4640501324414592,10.328111417008685,-0.026711570552919197,0.2869302828922686,-1.7662917842818555
1.4587416498433918,10.272173777539486,-0.026373255427753935,0.2724461117997292,-1.7558265623041225
1.453503119491417,10.219122472316588,-0.026012048091995678,0.2580669404292403,-1.7410712466738059
1.4483394127211704,10.168935857682325,-0.02562501961046846,0.24379920591338905,-1.7217123137586774
1.4432560108697297,10.12159091799569,-0.025208998903940464,0.22965019095296782,-1.6974179227531483
1.438259057649747,10.077063089171705,-0.02476053329588715,0.2156280972868648,-1.6678378741319864
1.4333554202820649,10.035326068115143,-0.024275840380932428,0.20174211327874728,-1.6326042551084952
1.428552761438275,9.996351610063272,-0.02375074805696861,0.18800246723997288,-1.5913331205858565
1.4238596248376187,9.960109317984394,-0.02318061794959372,0.17442045354881425,-1.5436277055953544
1.4192855385510657,9.926566431419722,-0.022560244915936833,0.1610084120978887,-1.4890838687667165
1.4148411419294145,9.895687626956828,-0.021883721300573804,0.14777963253103468,-1.4272987410306328
1.4105383449714979,9.867434849433796,-0.02114424827859423,0.1347481426992814,-1.357883910508638
1.406390533478068,9.841767202559797,-0.020333866655702453,0.12192832604071632,-1.2804849071162523
1.402412840417366,9.818640940221403,-0.019443063951319287,0.1093342973432245,-1.1948092052161825
1.398622514959562,9.798009614766993,-0.01846019062672098,0.09697895720089131,-1.1006652769247243
1.3950394377144035,9.779824453217817,-0.01737058182486311,0.0848726582908621,-0.9980150158757678
1.3916868569853202,9.764035038951636,-0.016155225465970237,0.07302148437094302,-0.8870403240444
1.3885924615029777,9.750590357941103,-0.01478872935745482,0.06142532573438862,-0.7682204511717396
1.3857899707757086,9.739440192752078,-0.013236177915236342,0.05007632615585427,-0.6424080040696942
1.3833215448273393,9.730536660232346,-0.011448081568458696,0.03895899904146078,-0.5108774179839846
1.381241595603151,9.723835303097463,-0.009351410673421861,0.028054572307357514,-0.3753031644346307
1.3796234508625618,9.719294349185464,-0.006830036732471501,0.01735496681262671,-0.23761670998016998
1.3785740419945107,9.716868372048427,-0.0036640519480388815,0.006904804557749836,-0.0997074223311436
