x,y,v_x,v_y,omega
2.375,32.48,0.0,3.230769230769231,-5.3061224489795915
2.3739665508074683,31.905021432833706,-0.011482768805906598,3.1578815155228677,-4.983755341615763
2.3710118820769774,31.3429076566555,-0.021346883755103258,3.0878271086794657,-4.6905848845101215
2.3664077211460075,30.793164839233576,-0.029810459922341416,3.020426418230803,-4.423166609317058
2.360389410565024,30.255330033291862,-0.03705965764414197,2.9555158700104402,-4.178538527987508
2.3531611940457564,29.7289684674301,-0.043253859236608086,2.892945972898019,-3.9541438559279016
2.3449006541606714,29.213671158022894,-0.04852991726433568,2.832579687182061,-3.747767627679341
2.3357624523341594,28.709052792781794,-0.05300565858579828,2.7742910377190526,-3.557484431837046
2.325881492141913,28.21474984599238,-0.05678278799472175,2.717963926607777,-3.3816151022508434
2.3153756038041027,27.730418892706354,-0.05994930464761404,2.663491109903615,-3.2186906656670202
2.304347829494334,27.25573509488627,-0.06258152101648021,2.6107733103195234,-3.0674222005696543
2.2928883745639643,26.79039083703975,-0.06474575598762763,2.5597184435306835,-2.926675535734368
2.281076278159781,26.3340944925156,-0.06649975961440747,2.5102409400710197,-2.795449929959707
2.268980847358425,25.886569304570408,-0.06789391595621225,2.462261148208864,-2.6728600412585553
2.2566628913707114,25.447552368704706,-0.06897226168505143,2.415704805854499,-2.558120625317696
2.244175786212535,25.016793704728457,-0.06977335118358018,2.3705025716594093,-2.450533507358888
2.231566395209435,24.59405540863598,-0.07033099329530657,2.326589607145856,-2.3494764547491114
2.218875866575421,24.179110875718088,-0.07067488041596136,2.283905203052966,-2.254393644430781
2.206140325907713,23.771744087467564,-0.07083112700301485,2.242392444175086,-2.1647874730055587
2.193391478628983,23.371748955784838,-0.07082273164953785,2.201997907855222,-2.0802115008253477
2.1806571350772805,22.978928718795764,-0.07066997448049019,2.1626713920233427,-2.000264356825874
2.167961669003207,22.59309538327946,-0.07039075967588435,2.1243656692689323,-1.9245844597221398
2.155326418613477,22.21406920929114,-0.0700009113211158,2.0870362639346505,-1.8528454348563295
2.1427700379429133,21.84167823307004,-0.06951442946292785,2.0506412496331308,-1.7847521254600534
2.130308805197149,21.475757824758702,-0.06894371215667727,2.0151410649373043,-1.7200371131659529
2.117956893748465,21.116150277838383,-0.06829974838425411,1.9804983452884504,-1.6584576759164191
2.1057266106567525,20.762704427515054,-0.06759228596810349,1.9466777694152058,-1.5997931224791888
2.093628606901615,20.41527529557849,-0.06682997797787167,1.9136459187688284,-1.543842451999806
2.0816720629295977,20.073723759509775,-0.06602051060009646,1.8813711486613718,-1.49042229472886
2.0698648526255785,19.737916243834825,-0.06517071500011594,1.8498234699491958,-1.4393650965239904
2.058213688395476,19.407724431917927,-0.06428666533435899,1.8189744402385382,-1.390517515159165
2.0467242496871214,19.083024996562912,-0.06337376475846913,1.7887970637060975,-1.3437390010528425
2.035401296967732,18.763699347943795,-0.06243682101252214,1.7592656987285111,-1.2989005388962964
2.0242487729119247,18.449633397524,-0.06148011294089594,1.7303559726025608,-1.2558835299416187
2.013269892326937,18.14071733674544,-0.060507449114519496,1.7020447027148042,-1.214578797492796
2.0024672221460684,17.8368454293783,-0.059522219561797755,1.6743098235867184,-1.1748857005128188
1.991842752652581,17.537915816520233,-0.05852744147695274,1.6471303192806765,-1.1367113422812438
1.9813979609505186,17.243830333321586,-0.05752579965707341,1.6204861607042955,-1.0999698627649017
1.9711338675726993,16.954494336592486,-0.05651968231869708,1.5943582473968256,-1.0645818048452023
1.961051087006739,16.66981654251878,-0.05551121285863796,1.568728353422119,-1.0304735458167957
1.9511498728249754,16.38970887377818,-0.0545022780498472,1.543579077028993,-0.9975767866660419
1.9414301580215343,16.114086315406084,-0.05349455309949976,1.5188937937720777,-0.9658280925804595
1.9318915910878247,15.842866778813246,-0.052489523941716305,1.4946566128150083,-0.9351684789544925
1.9225390107790883,15.575972831666366,-0.0514280350442437,1.4708316888169715,-0.9037183108210504
1.9133761194195866,15.313329614233176,-0.05038186895021934,1.4474262826629314,-0.8735950713580826
1.9044001177549,15.054862872927217,-0.04935148287963479,1.4244263985143801,-0.8447279008029674
1.8956081332418613,14.800500820178165,-0.048337233931905914,1.401818632030639,-0.8170504375937937
1.8869972370048689,14.550174030808247,-0.047339390923563755,1.3795901387462137,-0.7905004871008823
1.8785644587792456,14.303815343919638,-0.04635814491669457,1.3577286044605446,-0.7650197180233933
1.8703068000640317,14.061359769944012,-0.04539361858568348,1.3362222174908718,-0.7405533838723545
1.8622212456816012,13.822744402531193,-0.04444587455243278,1.3150596426515793,-0.7170500672263442
1.854304773919432,13.587908334977417,-0.04351492280500094,1.294229996834811,-0.6944614446812657
1.8465543654098688,13.356792580915307,-0.04260072730125804,1.2737228260775135,-0.6727420706247695
1.8389670108864864,13.129339999007481,-0.041703211847435244,1.2535280840094507,-0.651849178152042
1.831539717940414,12.905495221403957,-0.040822265331148286,1.2336361115852637,-0.6317424956056089
1.824269516886463,12.685204585740255,-0.039957746379417104,1.214037618011404,-0.6123840773698886
1.817153465836935,12.468416070468503,-0.03910948750422801,1.19472366278582,-0.5937381476835387
1.8101886550703505,12.255079233328058,-0.03827729879115486,1.1756856387747066,-0.5757709563509982
1.8033722107729147,12.045145152775248,-0.03746097118035369,1.1569152562564904,-0.5584506453406255
1.7967012982221435,11.838566372203992,-0.036660279383768694,1.1384045278685717,-0.5417471253518676
1.7901731244746253,11.63529684680007,-0.03587498447754637,1.1201457543972395,-0.5256319615191932
1.7837849406132524,11.435291892882312,-0.035104836204372665,1.1021315113556458,-0.5100782674971683
1.77753404360336,11.23850813959341,-0.034349575016656024,1.0843546362988261,-0.4950606072399903
1.7714177778019302,11.04490348281195,-0.033608933888119384,1.0668082168285058,-0.48055490385086863
1.7654335361593447,10.854437041165436,-0.03288263991838427,1.0494855792438758,-0.46653835493259005
1.7595787611489666,10.667069114031698,-0.0321704157524852,1.032380277797685,-0.45298935392108014
1.7538509454561018,10.482761141423115,-0.03147198083490331,1.0154860845199036,-0.4398874169293593
1.7482476324545546,10.301475665654674,-0.030787052515619542,0.9987969795738822,-0.42721311467049966
1.742772109172328,10.123395991261155,-0.030052095064676078,0.97986606924301,-0.46354054698372105
1.7374245551145397,9.94871450443939,-0.02936517224408306,0.9610393398877202,-0.5011072583498428
1.732196466147231,9.777412686545539,-0.02872470517045766,0.9423141922661995,-0.5398093084810616
1.7270796233142818,9.609472477569145,-0.028129104084536425,0.9236881296937253,-0.5795442733175978
1.7220660945537127,9.444876257908973,-0.02757677103289714,0.9051587554192846,-0.6202110176433255
1.7171482359599222,9.283606830588372,-0.027066102231439737,0.8867237703651876,-0.6617094690382197
1.712318692647465,9.125647403844805,-0.026595490129197662,0.8683809712299791,-0.7039403921736302
1.707570399268866,8.970981574027903,-0.026163325188570015,0.8501282489578291,-0.7468051624339946
1.7028965802362876,8.819593308739442,-0.025767997395632916,0.8319635875806255,-0.7902055378179377
1.6982907496946202,8.671466930147382,-0.025407897511783205,0.8138850634422562,-0.8340434280322631
1.6937467112917588,8.526587098403951,-0.02508141807556455,0.7958908448180915,-0.8782206596435477
1.689258557790459,8.384938795095135,-0.024786954161100577,0.7779791919465315,-0.9226387360932088
1.6848206705652222,8.246507306645512,-0.024522903897085137,0.7601484574937145,-0.9671985913122488
1.6804277190271892,8.111278207598133,-0.024287668747727968,0.7423970874771771,-1.0118003355904963
1.676074660019998,7.979237343684034,-0.024079653554394714,0.7247236226794915,-1.0563429922610628
1.6717567372300532,7.8503708145898905,-0.02389726633387988,0.7071267005887736,-1.1007242236528352
1.6674694806556394,7.724664956325039,-0.023738917826274002,0.689605057909575,-1.144840044640933
1.6632087061808776,7.602106323080612,-0.023603020782191845,0.6721575336951588,-1.1885845219859426
1.65897051530267,7.482681668463588,-0.02348798897567257,0.6547830731606648,-1.231849457496096
1.6547512950615828,7.3663779259769555,-0.023392235925295997,0.6374807322463618,-1.2745240528711415
1.6505477182311328,7.25318218860377,-0.02331417330192608,0.6202496830112498,-1.3164945538912696
1.6463567438242355,7.143081687337265,-0.02325220899693096,0.6030892199499325,-1.3576438713981884
1.6421756179807416,7.036063768481153,-0.023204744819668544,0.5859987673401874,-1.3978511762777188
1.6380018753061067,6.932115869523461,-0.02317017378738689,0.5689778877452841,-1.4369914653942473
1.6338333407384478,6.83122549336311,-0.023146876964379615,0.5520262918141645,-1.4749350951481877
1.6296681320296398,6.733380180640836,-0.023133219800152413,0.5351438495444409,-1.5115472790310418
1.625504662935872,6.638567479894,-0.023127547908377694,0.5183306031981593,-1.546687545243853
1.6213416472243722,6.5467749152181725,-0.023128182219398087,0.5015867820887963,-1.5802091501325057
1.6171781036160326,6.457989951076044,-0.02313341342881968,0.48491281949038895,-1.6119584428912186
1.613013361798659,6.372199953845836,-0.023141495653110654,0.46830937195635725,-1.6417741767149756
1.608847069662793,6.28939214964586,-0.023150639189844086,0.4517773413766996,-1.6694867613745203
1.6046792019318583,6.20955357790865,-0.023159002264984317,0.4353179001478356,-1.6949174520914427
1.6005100703811288,6.132671040106228,-0.023164681632012955,0.4189325198790905,-1.7178774696756334
1.5963403358662007,6.058731042946963,-0.02316570186718725,0.40262300411271995,-1.7381670472550022
1.5921710224118564,5.987719735273849,-0.023160003181082127,0.38639152558853535,-1.7555743997262385
1.5880035336471625,5.919622837793629,-0.023145427537738468,0.37024066863613847,-1.7698746135008547
1.583839671913374,5.854425564657433,-0.02311970283769005,0.35417347732160487,-1.780828456524917
1.5796816604190007,5.792112535798353,-0.023080424877568492,0.3381935100015122,-1.7881811123661246
1.5755321688731172,5.732667678814515,-0.02302503674336106,0.3223049009300238,-1.791660848044228
1.5713943430963053,5.676074119075814,-0.02295080522121424,0.3065124294999834,-1.790977634182351
1.5672718391924767,5.622314056642324,-0.022854793710216516,0.29082159753878883,-1.7858217493608919
1.5631688629701879,5.571368628534909,-0.02273383098188282,0.2752387147658277,-1.775862420273462
1.5590902154382542,5.523217754929476,-0.02258447492848892,0.2597709919611985,-1.7607465783394916
1.5550413453820824,5.477839968011583,-0.022402970140087713,0.244426640459815,-1.7400978560652476
1.5510284102776042,5.435212222614165,-0.02218519768744781,0.22921497506704827,-1.7135160088036983
1.5470583471568449,5.3953096885001095,-0.021926614765432194,0.21414651508911517,-1.6805770384599015
1.5431389555646697,5.358105525442333,-0.021622180703181757,0.19923307444173333,-1.6408344276134397
1.5392789955414026,5.323570644392024,-0.021266263999786164,0.18448782611725242,-1.5938220827667158
1.5354883047975805,5.291673461439039,-0.02085252204268269,0.16992531780481554,-1.539059856893838
1.5317779411902555,5.262379656555996,-0.020373740260928606,0.1555614031178914,-1.4760629021299587
1.5281603597181863,5.235651957069383,-0.019821609428727127,0.14141303562227434,-1.4043566214796508
1.524649638268147,5.2114499773431575,-0.019186406682819946,0.12749785022467428,-1.323499656488621
1.521261774469532,5.18973016209625,-0.01845652441290074,0.11383343029653564,-1.2331181222639942
1.5180150891703619,5.170445901031464,-0.017617756688989426,0.10043613708996718,-1.132954988520491
1.5149307932514666,5.15354790426376,-0.016652197965404025,0.08731938255118768,-1.0229385701520937
1.5120338084749114,5.138984942098688,-0.015536521774097698,0.07449130817185676,-0.903272320135436
1.509353987691398,5.126705036131231,-0.01423926470938522,0.061952091466539176,-0.7745422040320841
1.5069279711270909,5.116657094310479,-0.01271647489402719,0.049691706541802064,-0.6378245019220593
1.5048020895401506,5.108792727001223,-0.010904431627529755,0.037690152449933415,-0.49475354310654507
1.5030371530478903,5.103067421689783,-0.008705973842030205,0.025924351010500696,-0.34748055046105253
1.5017174255511376,5.099439000851131,-0.005957665010777515,0.014391436085616972,-0.1984411928225053
1.500973622454426,5.097856645456709,-0.0023068138415769297,0.00319029051906208,-0.04988799528526472
