x,y,v_x,v_y,omega
2.375,32.48,0.0,2.871794871794872,-2.2448979591836737
2.374460257386447,31.883888649273395,-0.005140405843364778,2.8054560875060974,-2.1040037051181004
2.3729202071662527,31.301433526061498,-0.009526739110864662,2.7417355621310318,-1.9763122336164187
2.3705271046032643,30.732101899340282,-0.01326471386997699,2.680470406642426,-1.8602183593498636
2.367407688018184,30.17539382294916,-0.01644401551174131,2.6215112732730352,-1.7543472901679809
2.363671265258825,29.63083944245513,-0.01914096314881892,2.564720921908203,-1.6575171287307073
2.359412291751274,29.097996583321734,-0.021420689304045715,2.5099729746003314,-1.5687081476753384
2.354712531529051,28.576448584031734,-0.023338931859985017,2.4571508281615637,-1.4870374987378383
2.3496428748112645,28.065802343521273,-0.024943513071316106,2.406146700509508,-1.4117383035965283
2.34426487162665,27.565686556923694,-0.026275564877393357,2.3568607908959973,-1.3421422951509254
2.338632029809638,27.07575011742578,-0.02737054766557866,2.3092005376555678,-1.2776653489369998
2.3327909167842504,26.595660665182756,-0.028259100195253593,2.263079959897032,-1.2177953775110695
2.326782097411015,26.125103266854982,-0.028967750978419384,2.218419071796073,-1.1620821648810027
2.320640934424403,25.663779211521266,-0.029519515560742823,2.175143359953602,-1.1101288001312533
2.314398273342439,25.211404910571652,-0.029934399505578094,2.1331833157570124,-1.0615844343247476
2.308081029959854,24.76771089074871,-0.03022982318570628,2.092474015890053,-1.0161381363938862
2.3017126954648313,24.332440870840998,-0.030420981528797096,2.0529547451357537,-0.9735136649704479
2.295313771708329,23.90535091367478,-0.03052114948550982,2.0145686564472904,-0.9334650061858002
2.2889021470948,23.486208646032413,-0.030541942071908836,1.9772624639562177,-0.89577255412266
2.282493421867247,23.074792539974005,-0.030493536285741064,1.9409861651714804,-0.8602398321542092
2.2761011901590606,22.67089124977381,-0.03038486093507998,1.9056927891161046,-0.8266906709068366
2.269737285024951,22.27430299932204,-0.030223759389773508,1.871338167567416,-0.7949667728441412
2.2634119916993756,21.884835015400462,-0.030017129425230552,1.8378807269238242,-0.7649256051328954
2.257134233527728,21.502303002728127,-0.02977104363808072,1.8052812985269882,-0.7364385720224604
2.25091173434447,21.126530657102045,-0.02949085334532783,1.7735029455309226,-0.7093894258489555
2.244751160510181,20.7573492133345,-0.029181278409804574,1.7425108046361515,-0.683672882283735
2.2386582453472563,20.39459702502139,-0.028846485046623453,1.7122719412030205,-0.6591934108377435
2.2326378983163324,20.038119173470093,-0.02849015334312693,1.6827552164283621,-0.6358641761138457
2.2266943009398554,19.687767103376252,-0.028115535956655464,1.6539311654177433,-0.6136061090331133
2.220830991195189,19.343398283070343,-0.027725509230643413,1.6257718851147156,-0.5923470903814094
2.215050937858829,19.004875887361337,-0.027322617782307646,1.59825093116153,-0.5720212316373405
2.2093566060785803,18.67206850118856,-0.026909113458156723,1.5713432228649384,-0.5525682402394402
2.2037500152762126,18.344849842457315,-0.026486989421534775,1.5450249555278797,-0.5339328583008387
2.1982327903343073,18.023098502580993,-0.02605801002518134,1.5192735194846687,-0.5160643653421512
2.1928062068937386,17.706697703384364,-0.02562373702785609,1.4940674252451462,-0.4989161369358665
2.1874787763060404,17.395535655736854,-0.025113697140696802,1.4693806475882887,-0.4804286322386082
2.182257976538627,17.08950472123408,-0.024608205406098052,1.445199681009591,-0.4628178717004861
2.1771427792312763,16.788500627419655,-0.024107959425814993,1.4215059743658531,-0.44603165047185517
2.172132021009771,16.492422905788157,-0.02361354744566133,1.3982818506960362,-0.4300214609268709
2.167224425062178,16.201174713620446,-0.023125461579036884,1.375510455663101,-0.41474218951560166
2.162418620103386,15.914662666267041,-0.022644109457072036,1.353175709607412,-0.4001518417665298
2.1577131570379477,15.632796679151806,-0.022169824499487786,1.331262262918626,-0.3862112925261754
2.153106523593121,15.355489818827053,-0.021702874975048428,1.309755454459972,-0.3728840588543404
2.1485971571608746,15.082658162464437,-0.021243471998728915,1.2886412728030303,-0.3601360932840799
2.144183456058646,14.814220665214567,-0.02079177659392705,1.2679063200528662,-0.34793559541047847
2.139863789393445,14.550099034912407,-0.02034790593179464,1.2475377780629373,-0.33625283999635897
2.13563650569181,14.290217613645833,-0.019911938845680204,1.2275233768568037,-0.3250600199802395
2.1314999404388355,14.034503265741463,-0.019483920706461013,1.2078513650895635,-0.31433110294565003
2.1274524226525937,13.78288527175545,-0.01906386773393317,1.1885104823962822,-0.3040416997643353
2.12349228060546,13.535295228087637,-0.018651770810201678,1.1694899334876498,-0.2941689442614764
2.1196178467908258,13.291666951865626,-0.018247598852978473,1.1507793638648443,-0.2846913828711026
2.1158274622222955,13.051936390771015,-0.017851301799691962,1.132368837036211,-0.2755888733562664
2.112119480142372,12.816041537503772,-0.017462813247197895,1.1142488131280235,-0.26684249176299113
2.1084922692088295,12.583922348602343,-0.01708205278653896,1.0964101287903474,-0.25843444686093303
2.104944216219153,12.355520667357123,-0.016708928067526614,1.0788439783070027,-0.2503480013983834
2.1014737284265608,12.130780150573173,-0.016343336623825505,1.0615418958258644,-0.24256739956578122
2.0980792354950677,11.909646198955059,-0.01598516748563213,1.0444957386323486,-0.23507780012126567
2.094759191135668,11.692065890902192,-0.015634302603890073,1.0276976713949535,-0.22786521468481546
2.0915120744610016,11.477987919517414,-0.015290618107217272,1.0111401513172233,-0.2209164507549261
2.0883363910916635,11.267362532644874,-0.014953985410287895,0.9948159141355217,-0.21421905904421445
2.0852332652367815,11.06027509352884,-0.014599594160018348,0.9774454107790811,-0.23304390837706257
2.0822017837638294,10.856823478405307,-0.014271657963333885,0.9601890189688722,-0.25373911742337285
2.0792363898085955,10.656984056094352,-0.0139701892293731,0.9430435744687916,-0.27619657627286975
2.0763315344428053,10.460733847151506,-0.013695099968624988,0.9260060345106869,-0.3003110551857515
2.073481696847925,10.26805049888635,-0.013446210458811022,0.9090734727764969,-0.32597997596083433
2.070681402741293,10.07891226139397,-0.013223257223395337,0.8922430747699654,-0.3531031901568661
2.0679252411938083,9.893297964519135,-0.01302590037169703,0.8755121335617982,-0.38158276330318774
2.065207879968503,9.711186995676236,-0.012853730345496236,0.8588780458943897,-0.41132276425556596
2.062524079500339,9.532559278450705,-0.012706274113209359,0.8423383086344631,-0.4422290588669505
2.0598687056292935,9.35739525190985,-0.012583000849128912,0.8258905155641676,-0.47420910715111436
2.0572367411912906,9.185675850552759,-0.012483327131851352,0.8095323545033751,-0.5071717631195419
2.0546232965646993,9.017382484830296,-0.012406621692825638,0.7932616047581587,-0.5410270764684144
2.052023619263946,8.852497022166954,-0.012352209742919987,0.7770761348927183,-0.5756860952828985
2.04943310266623,8.691001768416658,-0.012319376901999583,0.7609739008243998,-0.6110606689099192
2.0468472939523803,8.532879449684483,-0.0123073727537093,0.7449529442439393,-0.6470632501278507
2.044261901338522,8.378113194445469,-0.012315414044938224,0.7290113913657128,-0.683606695711683
2.0416728006713916,8.226686515890432,-0.01234268754678247,0.713147452015596,-0.7206040644547228
2.039076041456904,8.078583294426746,-0.0123883525911943,0.6973594190671112,-0.7579684116621952
2.0364678523888657,7.933787760259513,-0.01245154329488281,0.6816456682398789,-0.7956125790775503
2.0338446464425672,7.792284475975126,-0.012531370479387497,0.6660046582780814,-0.833448979138087
2.0312030255964086,7.654058319045202,-0.012626923293551902,0.65043493153073,-0.8713893723818205
2.0285397852436917,7.519094464163665,-0.012737270541849631,0.6349351149600949,-0.9093446367413649
2.025851918356289,7.387378365323826,-0.012861461719126102,0.6195039216097796,-0.9472245273619097
2.0231366194621065,7.258895737534981,-0.012998527749280111,0.604140152569707,-0.9849374254679593
2.0203912884991033,7.13363253806957,-0.013147481422180083,0.5888426994818424,-1.0223900746761303
2.0176135346102115,7.011574947121993,-0.013307317519646493,0.5736105476379406,-1.0594873030076162
2.014801179945802,6.8927093477484505,-0.01347701261758566,0.5584427797291179,-1.0961317286925971
2.0119522635434914,6.777022304943628,-0.013655524547276027,0.5433385803168009,-1.1322234476785602
2.0090650453591232,6.664500543694256,-0.013841791494324667,0.5282972411057762,-1.167659700554005
2.0061380105277893,6.555130925831293,-0.014034730708859668,0.5133181671129088,-1.20233451637741
2.003169873939881,6.448900425481252,-0.014233236795024518,0.4984008838398543,-1.2361383306581673
2.000159585224525,6.345796102892685,-0.014436179541703967,0.48354504557507305,-1.2689575744717663
1.9971063342414448,6.245805076385455,-0.014642401249534524,0.4687504449699824,-1.3006742314073727
1.9940095571925842,6.148914492137671,-0.01485071350151863,0.45401702405652306,-1.3311653587455101
1.9908689434767624,6.055111491487324,-0.015059893315832379,0.43934488689914886,-1.360302568953009
1.987684443424599,5.964383175382029,-0.015268678609531884,0.4247343141036725,-1.3879514672720978
1.984456277067082,5.876716565560059,-0.015475762890631649,0.4101857794388876,-1.4139710408868722
1.9811849441098275,5.792098561988176,-0.015679789083219084,0.3956999688647475,-1.4382129948986648
1.9778712353066519,5.710515896015533,-0.0158793423755974,0.3812778023032843,-1.460521030170175
1.974516245450936,5.631955078627481,-0.016072941964553646,0.3669204585352923,-1.4807300580633922
1.9711213882319858,5.556402343097343,-0.01625903154925852,0.3526294036565158,-1.4986653472822244
1.9676884132367483,5.483843581237473,-0.016435968405384818,0.3384064235803335,-1.5141415985604028
1.9642194254156786,5.414264272343189,-0.016602010842896277,0.32425366112713644,-1.5269619439888118
1.9607169073762496,5.347649403804478,-0.01675530381833325,0.31017365828917126,-1.536916869616883
1.9571837449199212,5.28398338223305,-0.016893862432413084,0.2961694042958717,-1.5437830629739602
1.9536232563002016,5.2232499338197975,-0.01701555299348868,0.2822443901160505,-1.5473221918989832
1.9500392257533354,5.165431992507646,-0.017118071262379093,0.26840266999966733,-1.5472796283591117
1.9464359419430313,5.110511574449774,-0.01719891740718327,0.25464893055149984,-1.543383141977422
1.9428182420722488,5.058469637144661,-0.017255367076460002,0.24098856759242804,-1.535341604529308
1.93919156255739,5.009285921631875,-0.017284437826958,0.22742777062457872,-1.5228437712737029
1.935561997347397,4.962938776250844,-0.017282849887259942,0.21397361395666786,-1.5055572414154252
1.9319363652249337,4.919404960795308,-0.017246979850486736,0.20063415228654913,-1.4831277537325116
1.9283222877859227,4.878659430571684,-0.017172805282950447,0.18741851650987762,-1.4551790524056771
1.9247282803179058,4.840675101093712,-0.017055837269591072,0.17433700232793958,-1.4213136737794216
1.9211638585875264,4.805422596224108,-0.0168910363530723,0.16140113928734792,-1.3811151732403482
1.917639665770522,4.772869985957048,-0.0166727047612543,0.14862372039895377,-1.3341525544407815
1.91416762569408,4.74298252536596,-0.016394343585812845,0.13601876142092767,-1.2799880083987214
1.9107611316795248,4.715722414389607,-0.016048456552807816,0.12360134311578012,-1.2181895478043014
1.9074352853530772,4.691048610163268,-0.015626270365741768,0.11138726856364971,-1.1483507525006296
1.9042072081226522,4.668916740554675,-0.015117322304971316,0.09939244199437502,-1.0701206015210587
1.9010964617026662,4.649279189701108,-0.014508834075847665,0.08763185184911525,-0.9832471038944021
1.8981256364901842,4.632085451293893,-0.013784739376361,0.07611803774340957,-0.8876386984451186
1.8953212031806093,4.617282863986681,-0.012924149286258808,0.0648589842300353,-0.7834460828168528
1.892714782897624,4.6048178317907045,-0.011898901027884271,0.05385560811259499,-0.6711620798346825
1.8903450927119718,4.594637539517368,-0.010669576930710356,0.04309955639537661,-0.5517249621711798
1.8882610177049497,4.586691905004216,-0.009178756469499656,0.03257315325369338,-0.4265884403275899
1.8865267365630156,4.580934901181518,-0.007338206787014074,0.022255454581533173,-0.2976929615630678
1.8852314583429683,4.577322985751703,-0.004997776261055629,0.012143739988131045,-0.16725675761726988
1.8845149611161764,4.575803080704155,-0.0018260068512481473,0.0023315461789918286,-0.03734132483265637
