x,y,v_x,v_y,omega
2.375,32.48,0.0,3.333333333333333,-2.1224489795918373
2.3744556202630793,31.821632583697642,-0.005443797369205288,3.250340829690195,-1.9765364816557518
2.372909459863608,31.17950264520937,-0.010017806625509018,3.170958555192532,-1.845709835833282
2.370522130049395,30.55291255843096,-0.013855491516621517,3.094942312591564,-1.7279580993345705
2.3674297618424838,29.94121134458242,-0.0170681905524891,3.0220698258938454,-1.6215855868179987
2.363748030152102,29.343790535676277,-0.0197491263513305,2.9521382631675768,-1.525155995482475
2.3595754551098493,28.76008049921161,-0.021976624071194523,2.88496210147909,-1.4374474875349867
2.3549961219348785,28.18954716134258,-0.02381670767851472,2.8203712772112204,-1.3574163851656378
2.3500819307573235,27.631689076007167,-0.025325204097033528,2.7582095761429057,-1.284167675446467
2.3448944647406047,27.086034795766203,-0.026549456070154572,2.698333226266761,-1.2169309302978881
2.3394865468961843,26.552140506835464,-0.02752972237405024,2.640609663040598,-1.1550405554628669
2.3339035419543563,26.02958789632383,-0.028300327044230043,2.5849164420757753,-1.0979195178984846
2.3281844486281376,25.517982224266497,-0.028890606217960194,2.5311402784975496,-1.0450658817050298
2.322362818897445,25.01695057685496,-0.029325691088963386,2.4791761956177822,-0.9960416222412647
2.316467534027674,24.526140280460936,-0.029627157608747758,2.428926768322459,-0.9504632964260181
2.3105234615246784,24.045217458745334,-0.029813567421205816,2.380301448833574,-0.9079942318270329
2.3045520128139017,23.573865717425782,-0.02990091968656451,2.3332159643619623,-0.8683379635380625
2.298571617881491,23.111784943219075,-0.029903029637541184,2.287591777705106,-0.8312327002190282
2.292598130249031,22.658690205136153,-0.0298318466870594,2.2433556031241033,-0.7964466421806823
2.2866451733303883,22.214310747733187,-0.029697722499366787,2.2004389709055796,-0.7637740074391501
2.280724437329295,21.778389067151053,-0.02950963751156535,2.1587778349157225,-0.7330316480871736
2.2748459342933764,21.350680061837956,-0.02927539284761838,2.1183122182152805,-0.7040561605436438
2.2690182176763956,20.93095025077136,-0.02900177332219472,2.078985892450681,-0.676701410345826
2.263248571721649,20.518977052797595,-0.02869468622526782,2.0407460872869883,-0.6508364059900767
2.257543175122947,20.114548121406976,-0.028359279761752773,2.003543226619162,-0.6263434675707099
2.251907242711211,19.717460729874865,-0.028000044355609946,1.9673306887019448,-0.603116645133444
2.24634514832717,19.327521202236042,-0.027620899484797384,1.932064587686297,-0.5810603491593465
2.24086053155184,18.94454438603237,-0.027225268268505257,1.8977035743504127,-0.5600881617513263
2.235456390558747,18.56835316319001,-0.02681614166242509,1.864208654073162,-0.5401218021651452
2.2301351630108655,18.19877799575036,-0.02639613381638883,1.8315430203233838,-0.5210902245154673
2.2248987966392706,17.83565650350454,-0.025967529899557473,1.7996719021347936,-0.5029288289584667
2.2197488109001333,17.4788330708703,-0.02553232749181618,1.7685624242075868,-0.4855787705374256
2.214686350904113,17.12815848060678,-0.025092272468390728,1.7381834784276569,-0.4689863522824532
2.2097122346411058,16.783489572191442,-0.024648890161677667,1.7085056057256902,-0.4531024911654734
2.2048269943784575,16.444688922887497,-0.024203512464806568,1.6795008873137744,-0.43788224719631236
2.200030912987836,16.111624549712246,-0.023757301441406527,1.651142844438724,-0.4232844073614458
2.195324055851488,15.784169630680285,-0.023311269922073354,1.6234063458809038,-0.40927111729973387
2.190706298909542,15.462202243841546,-0.022866299497385233,1.5962675225064928,-0.395807554616896
2.186177353334029,15.145605122765776,-0.022423156257745387,1.5697036882512114,-0.3828616385934315
2.181736787250255,14.834265427243086,-0.021982504579994185,1.5436932669756875,-0.37040377176456346
2.1773840448704447,14.528074528076733,-0.021544919218109138,1.518215724687857,-0.35840660946652425
2.1731184633567193,14.226927804940253,-0.021110895919144106,1.4932515066769247,-0.3468448539684392
2.1689439349097324,13.930724773870768,-0.020634388550725753,1.468778804017931,-0.3343804803369654
2.16486377006476,13.639368570908726,-0.020167259899001536,1.4447832256024742,-0.32248508108125673
2.160876087886275,13.352765467743474,-0.019709561885846924,1.4212478060500602,-0.31112596316818214
2.156979000988297,13.07082505208902,-0.019261307093928984,1.398156350494489,-0.30027266761247273
2.1531706228426466,12.79346007796915,-0.01882247436257913,1.3754933907042166,-0.28989679262012447
2.1494490740379466,12.52058632448206,-0.018393013684420926,1.3532441441667014,-0.27997183259442165
2.145812487620483,12.252122462474894,-0.017972850490214288,1.3313944759049543,-0.2704730314183577
2.1422590136316586,11.987989928602893,-0.017561889398028427,1.3099308628150512,-0.26137724860182904
2.1387868229425506,11.728112806288202,-0.01716001749305266,1.2888403603318637,-0.2526628370356416
2.135394110473658,11.47241771313032,-0.016767107195874688,1.268110571246963,-0.2443095312298033
2.1320790978770994,11.22083369435385,-0.01638301876971225,1.2477296165177316,-0.23629834503312122
2.1288400357490564,10.973292121910042,-0.01600760251071608,1.2276861079203552,-0.22861147793678926
2.1256752054319916,10.729726598876834,-0.01564070065993348,1.2079691224117182,-0.22123222915818827
2.1225829204589264,10.490072868828019,-0.01528214907071652,1.18856817807642,-0.21414491878402386
2.119561527685737,10.25426872986585,-0.014931778661177193,1.1694732115452853,-0.20733481532550957
2.1166094081518545,10.022253953033225,-0.014589416677649314,1.1506745567809735,-0.20078806910369676
2.113724977704895,9.79397020484166,-0.014254887791940223,1.1321629251346763,-0.19449165094124
2.110906687420463,9.569360973669639,-0.013928015052382297,1.1139293865855373,-0.18843329568873096
2.108153023844598,9.348371499802948,-0.013608620706271106,1.0959653520813826,-0.18260145015997864
2.105462509083055,9.130948708904238,-0.013296526909157537,1.078262556905702,-0.17698522509191592
2.1028337007586786,8.917041148713508,-0.012991556334605615,1.0608130450016133,-0.17157435078174257
2.100265191855578,8.706598928794463,-0.012693532696401747,1.043609154188836,-0.1663591360869737
2.0977556104665602,8.499573663154123,-0.012402281193775053,1.0266435022145501,-0.1613304305036878
2.095303619458289,8.295918415574324,-0.012117628888936664,1.0099089735834443,-0.15647958906485007
2.092907916066881,8.095587647504349,-0.011839405025146231,0.9933987071163174,-0.15179843982445657
2.0905694753617436,7.898706612200268,-0.011545002026227292,0.9754116459244937,-0.18080000468414628
2.088286780581688,7.705412039802059,-0.011281945774328677,0.9575340780575845,-0.21136859180201548
2.086053611710006,7.515682324105352,-0.011049742942488913,0.9397630789094705,-0.2434008554378986
2.0838638542138535,7.329496432775766,-0.010847832019035929,0.9220958343863861,-0.2767956909626734
2.0817115120365726,7.146833885643524,-0.010675589753776743,0.9045296369360332,-0.3114540152942729
2.0795907193553633,6.967674733756329,-0.01053233705831299,0.8870618819359233,-0.3472785516111456
2.077495751209752,6.79199953911958,-0.010417344397801351,0.8696900644315582,-0.3841736174727837
2.0754210330991696,6.619789355054685,-0.010329836708023055,0.8524117762173803,-0.42204491547733214
2.0733611496415323,6.4510257071073696,-0.010268997868350373,0.8352247032557804,-0.4607993255802334
2.0713108523788897,6.285690574438604,-0.010233974758073366,0.8181266234318778,-0.5003446981850987
2.0692650668110275,6.123766371630985,-0.01022388092055086,0.8011154046443117,-0.5405896470982057
2.067218898733297,5.965235930843061,-0.010237799856749302,0.784189003234941,-0.5814433414108036
2.065167639950932,5.8100824842432495,-0.010274787966905759,0.7673454627631797,-0.6228152953382651
2.0631067734386144,5.658289646653557,-0.010333877156270089,0.7505829131337379,-0.6646151550014618
2.0610319780111754,5.509841398331201,-0.010414077118118722,0.7338995700898453,-0.7067524810828852
2.0589391325689177,5.3647220678134495,-0.01051437730446003,0.7172937350876565,-0.749136526227163
2.0568243199792677,5.222916314747529,-0.01063374859203858,0.7007637955715446,-0.7916760059818346
2.054683830655228,5.084409112622929,-0.010771144648360476,0.6843082256744433,-0.8342788619884829
2.052514165890445,4.949185731318245,-0.010925502999469735,0.6679255873723954,-0.8768520160354093
2.0503120410106908,4.817231719368195,-0.01109574579806818,0.65161453212809,-0.9193011134696663
2.0480743884021595,4.688532885848932,-0.011280780287247386,0.635373803064546,-0.961530254336971
2.04579836047828,4.563075281770743,-0.011479498951544473,0.6192022377173475,-1.0034417104712479
2.0434813326488066,4.4408451808567975,-0.011690779343193135,0.6030987714221114,-1.044935626589581
2.041120906357761,4.321829059574252,-0.011913483567259887,0.5870624414033502,-1.08590970326145
2.0387149122605583,4.20601357626974,-0.012146457404768713,0.5710923916417739,-1.1262588594114575
2.0362614136152963,4.093385549244601,-0.012388529047852696,0.5551878786096092,-1.165874871780645
2.0337587099689762,3.9839319335858434,-0.012638507415346358,0.5393482779779547,-1.2046459885113847
2.031205341226346,3.8776397965463616,-0.012895180010953843,0.5235730924168682,-1.2424565137336805
2.028600092197342,3.77449629124186,-0.013157310279089144,0.5078619606281377,-1.2791863597161404
2.025941997728877,3.674488628401754,-0.013423634405562646,0.4922146677729372,-1.3147105628037834
2.023230348538186,3.5776040458762353,-0.013692857501342649,0.4766311574822496,-1.3488987590000023
2.020464697878303,3.4838297755612544,-0.013963649097487688,0.46111154566754237,-1.3816146146671295
2.017644869181771,3.3931530073561795,-0.014234637867834287,0.445656136383223,-1.4127152074292502
2.0147709648466967,3.3055608497147198,-0.014504405482909257,0.43026544003138445,-1.4420503519788255
2.0118433763500514,3.221040286287206,-0.014771479483544457,0.41494019424374684,-1.4694618651416278
2.0088627958971497,3.139578128080249,-0.015034325045472677,0.3996813878258341,-1.4947827642829066
2.0058302298439665,3.0611609604772276,-0.015291335486359484,0.38449028820436537,-1.5178363930028667
2.0027470141609567,2.9857750843687754,-0.01554082134373876,0.3693684728801711,-1.5384354681630574
1.9996148322440375,2.913406450535316,-0.015780997825450976,0.35431786545442767,-1.556381042743253
1.9964357354212487,2.8440405863035707,-0.016009970402438418,0.33934077686302755,-1.5714613800520807
1.9932121665534341,2.7776625133655024,-0.016225718275706832,0.32443995251765306,-1.5834507367007817
1.9899469871855826,2.7142566555033127,-0.016426075402808632,0.3096186261042381,-1.5921080549352378
1.9866435087741896,2.6538067348112833,-0.01660870871112205,0.29488058081604973,-1.5971755700508001
1.983305528598031,2.596295654851989,-0.016771093050462732,0.2802302187769091,-1.5983773466369113
1.9799373710591708,2.541705369043921,-0.016910482338139188,0.26567263930375873,-1.5954177697151397
1.976543935204115,2.4900167324726077,-0.017023876212419478,0.25121372640936246,-1.5879800355151052
1.973130749451465,2.441209335285148,-0.017107981314081075,0.23686024546525247,-1.5757247147383089
1.9697040347175927,2.395261315929428,-0.017159166024640793,0.22261994809195546,-1.5582885032134628
1.966270777410702,2.3521491528300267,-0.017173407044267536,0.20850168290207088,-1.535283337520116
1.9628388141571347,2.311847433803546,-0.017146225491405584,0.1945155073627426,-1.506296146239624
1.9594169307001348,2.2743286038399333,-0.017072609078591545,0.1806727922733689,-1.4708896452021494
1.9560149782849494,2.2395626941678053,-0.016946915073264006,0.16698630444790072,-1.428604787700251
1.952644012208495,2.207517039310151,-0.016762745691279998,0.153470244128659,-1.378965776036519
1.9493164593946046,2.178155994886975,-0.016512782447624802,0.14014020010311615,-1.3214889649271646
1.9460463254128944,2.15144067828221,-0.016188557369478194,0.12701296594451614,-1.2556975803121406
1.9428494572300552,2.1273287682646185,-0.01578012445891177,0.11410613423139133,-1.1811449672205498
1.9397438877422657,2.105774419505142,-0.015275570418984342,0.10143735336337255,-1.0974500375632117
1.9367503043951573,2.0867283739621705,-0.014660263052098601,0.08902310206634148,-1.0043495110697043
1.9338927112118927,2.070138380190606,-0.013915668780548208,0.07687683564931791,-0.901771807228623
1.9311993982649938,2.055950051750621,-0.013017460688441888,0.06500644875054605,-0.7899355453724015
1.9287044070577979,2.0441082755192,-0.011932451383516977,0.05341131356366828,-0.6694685259402049
1.9264498099041285,2.034559152012797,-0.010613520153175482,0.04207992150037401,-0.5415262028993562
1.924489381939984,2.027252087649263,-0.008990759488268793,0.030990722134954157,-0.4078587386953201
1.922894937557908,2.022140833012191,-0.0069536843324900875,0.020121824235753552,-0.2707400655377725
1.9217692674803917,2.0191801997397967,-0.004303016442675285,0.009484508488201152,-0.13265926622478236
1.9212872151290992,2.0183046733957646,-0.0005175070702504621,-0.0007292450478852217,0.004218245343219906
