x,y,v_x,v_y,omega
2.375,32.48,0.0,3.282051282051282,-7.387755102040816
2.3735509864414395,31.89601078722095,-0.016100150650674327,3.2067177488270238,-6.931990050846086
2.369410015230624,31.325307692693414,-0.029910640580603533,3.134427745923374,-6.518265028785843
2.362961076597816,30.76736143560031,-0.041744233117265245,3.0649751106666776,-6.141517918210222
2.354536074565073,30.221678007611754,-0.05186690057987925,2.9981740892061466,-5.79741402859207
2.344422544792446,29.687795251364307,-0.06050565244930875,2.933856535765498,-5.482225628780745
2.332870095826183,29.165279898434807,-0.06785489162027782,2.87186960789561,-5.192734096077722
2.3200958106639065,28.653724987016414,-0.07408161018279945,2.8120738523087505,-4.926149915876814
2.306288796149222,28.15274759618836,-0.07932966220258118,2.7543416013363244,-4.680046884072903
2.2916140298592866,27.661986846379836,-0.08372329657447923,2.69855561875836,-4.452307693107754
2.276215624842594,27.18110212540445,-0.08737009249988079,2.6446079476348165,-4.2410787035108735
2.260219609654734,26.709771507032105,-0.09036340958745409,2.592398923169034,-4.044732173035561
2.2437363030757145,26.247690335012194,-0.09278444129054399,2.541836321496633,-3.8618345750042975
2.226862348537408,25.7945699501614,-0.09470394246841639,2.492834621289977,-3.6911199147636657
2.2096824618012763,25.35013654187407,-0.09618368793304936,2.445314359680357,-3.5314671687512633
2.192270936173095,24.914130108421002,-0.09727770793562518,2.3992015675759433,-3.3818811395723394
2.1746929420444188,24.486303512836862,-0.09803333793855788,2.3544272722478325,-3.2414761537053485
2.157005651443914,24.066421623181462,-0.09849211317816126,2.3109270572565896,-3.1094621342110855
2.139259213283148,23.65426052759007,-0.09869053305257293,2.2686406715366787,-2.985132665271193
2.1214976008711677,23.249606815875268,-0.09866071596943322,2.2275116808500353,-2.8678547331934965
2.1037593498782425,22.852256920564066,-0.0984309617297316,2.1874871559410844,-2.757059883253637
2.08607820211561,22.462016511192385,-0.09802623563285415,2.1485173926331456,-2.6522365761311937
2.068483668157175,22.078699936469285,-0.0974685861275352,2.1105556598457333,-2.552923563862073
2.051001519874839,21.702129709592494,-0.09677750589842077,2.0735579721186106,-2.4587041348173164
2.033654222322298,21.332136032566254,-0.09597024468536541,2.037482883728533,-2.3692011015247827
2.0164613130270888,20.968556355859732,-0.0950620808169613,2.0022913018994455,-2.284072425193503
1.999439735592135,20.611234970163025,-0.09406655734919207,1.96794631695286,-2.203007387388389
1.9826041335293316,20.2600226273591,-0.09299568779306733,1.9344130475352144,-2.1257232330783267
1.9659671094187003,19.91477618814362,-0.09186013565839186,1.901658499303457,-2.0519622207579387
1.949539453782753,19.575358293997173,-0.09066937140768921,1.8696514356570593,-1.9814890249357204
1.9333303474665842,19.241637061452774,-0.0894318098830746,1.8383622592807127,-1.9140884443224786
1.9173475408031302,18.9134857968104,-0.08815493082197186,1.8077629034123692,-1.849563375814156
1.901597512406094,18.590782729634057,-0.08684538470065208,1.7778267318803112,-1.7877330200620507
1.8860856100587036,18.27341076352906,-0.08550908582590784,1.7485284470640747,-1.728431289240417
1.8708161758451096,17.96125724284058,-0.08415129432513481,1.7198440050301234,-1.6715053917034128
1.8557926573948307,17.654213734041985,-0.08277668845574157,1.6917505371765322,-1.616814571690966
1.8410177068724503,17.352175820694683,-0.08138942845959767,1.664226277793515,-1.5642289851959013
1.8264932691391307,17.055042910962364,-0.07999321302173108,1.637250497010005,-1.513628695624783
1.8122206603346576,16.76271805675278,-0.07859132925019337,1.6108034386520322,-1.4649027750406256
1.7982006379746451,16.475107783641228,-0.07718669697216723,1.584866262587426,-1.4179484986235389
1.7844334635238321,16.192121930802667,-0.07578190803686367,1.5594209911743488,-1.3726706215728168
1.7709189582901819,15.913673500244752,-0.07437926122591997,1.5344504594691437,-1.3289807290404039
1.7576565533833293,15.639678514693095,-0.07298079329466454,1.5099382688825893,-1.2867966508642046
1.7446453343927275,15.370055883533347,-0.07158830660090952,1.4858687440035119,-1.246041933888123
1.7318913210145834,15.104730666593966,-0.07012295315624759,1.4621892219895976,-1.2042591559723819
1.7193990373881256,14.843630374609589,-0.06868019824883871,1.438925133392356,-1.1642325754045257
1.7071643734834772,14.586681477638813,-0.06726051180281238,1.4160626107273797,-1.1258686994134077
1.695183145667725,14.333812889008772,-0.06586424170554267,1.3935883740508308,-1.0890799533186348
1.6834511173508289,14.084955862401184,-0.06449162848219378,1.3714896993668093,-1.0537842457686952
1.6719640171364059,13.840043894442402,-0.0631428183447291,1.3497543890641064,-1.0199045702107818
1.6607175547535646,13.599012632445955,-0.06181787479795165,1.328370744229737,-0.9873686392208515
1.649707435015011,13.361799786982296,-0.060516788963757714,1.3073275386998076,-0.956108548668388
1.6389293700193295,13.128345048974499,-0.05923948876603621,1.2866139947201556,-0.9260604689975181
1.628379089791189,12.898590011040692,-0.05798584710219173,1.2662197600999272,-0.8971643611792572
1.6180523515318384,12.672478092824111,-0.05675568911281192,1.2461348867509712,-0.86936371513283
1.6079449476333396,12.4499544700702,-0.05554879864828488,1.2263498105147257,-0.8426053086307768
1.598052712593196,12.23096600722711,-0.0543649240199783,1.2068553321862598,-0.8168389848960256
1.5883715289511624,12.015461193361634,-0.05320378311372689,1.187642599652374,-0.7920174472719903
1.5788973323568065,11.803390081196866,-0.05206506793467297,1.1687030910672644,-0.7680960695014322
1.569626115864652,11.594704229091239,-0.05094844864482203,1.1500285989952548,-0.7450327202883511
1.5605539335433083,11.389356645790663,-0.04985357714788517,1.1316112154555698,-0.7227876009414032
1.551676903475701,11.18730173779684,-0.04878009026997516,1.1134433178091174,-0.7013230950088517
1.5429912102192564,10.988495259205155,-0.04772761257940611,1.095517555431809,-0.6806036289152733
1.5344931067875378,10.792894263875212,-0.04669575888413666,1.077826837123111,-0.6605955427003923
1.5261789162082557,10.600457059805922,-0.0456841364412197,1.0603643192023422,-0.6412669700416025
1.5180450327067434,10.411143165595327,-0.044692346908915326,1.043123394248726,-0.6225877268149178
1.5100879225587462,10.224913268872946,-0.04371998806883183,1.0260976804444113,-0.604529207515137
1.5023041246517232,10.041729186599515,-0.04276665534253428,1.009281011482623,-0.58706428891565
1.494690250789694,9.861553827135555,-0.04183194312445813,0.9926674270058014,-0.5701672404022481
1.4872511569748987,9.68457701694798,-0.040824654817710866,0.9737415750783649,-0.6039278826877105
1.479988475939854,9.51099742194172,-0.03987180112723034,0.9549205916578432,-0.6389681300027544
1.4728925772787842,9.340796401227859,-0.03897151732910008,0.936201860718409,-0.6751804000241826
1.4659541662630815,9.173955775244533,-0.03812193840092943,0.9175828724296473,-0.7124587260852175
1.4591642836992131,9.01045780688466,-0.03732120119760937,0.8990612204578323,-0.7506985184125683
1.4525143054214147,8.850285183074792,-0.036567446333484376,0.8806345996518117,-0.7897963271492794
1.4459959414704482,8.693420996735906,-0.03585881978836409,0.8623008041136044,-0.8296496061127174
1.4396012350067795,8.539848729056562,-0.035193474252401054,0.8440577256568803,-0.8701564762180893
1.4333225610040372,8.389552232008068,-0.0345695702225116,0.82590335265972,-0.9112154874703743
1.4271526247665487,8.242515711029757,-0.03398527686069412,0.8078357693215069,-0.9527253783910518
1.421084460313081,8.098723707810443,-0.033438772622279234,0.789853155337526,-0.9945848317000046
1.4151114286676933,7.958161083089266,-0.03292824565980596,0.7719537860088974,-1.036692225016867
1.4092272160977861,7.820812999395571,-0.03245189400583169,0.7541360328099196,-1.0789453752791769
1.403425832339064,7.686664903643095,-0.0320079255355246,0.736398364439811,-1.1212412754961878
1.3977016088472074,7.555702509488295,-0.03159455770732639,0.7187393483913104,-1.163475822366266
1.392049197116593,7.427911779356354,-0.03121001707727922,0.701157653074708,-1.2055435331814734
1.3864635671074603,7.30327890603078,-0.030852538579749983,0.6836520505427598,-1.2473372503242761
1.3809400058245032,7.181790293693659,-0.03052036456421886,0.6662214198696929,-1.2887478315273109
1.3754741160920196,7.06343253829322,-0.03021174357448743,0.6488647512463013,-1.3296638239168341
1.3700618155735407,6.948192407103374,-0.029924928853056535,0.6315811508631081,-1.369971119693025
1.3646993360873128,6.836056817325851,-0.029658176549475494,0.6143698466649278,-1.4095525911150815
1.3593832232732197,6.727012813569427,-0.029409743607112848,0.5972301950731065,-1.4482877022557925
1.3541103366717613,6.6210475440220655,-0.029177885297979683,0.5801616887864822,-1.486052094769353
1.3488778502816543,6.518148235110274,-0.02896085236987466,0.5631639657889559,-1.5227171446788883
1.343683253669594,6.418302164415298,-0.0287568877641297,0.5462368197107746,-1.558149486939219
1.3385243537138256,6.321496631587202,-0.028564222855517987,0.5293802117125099,-1.5922105042705632
1.3333992770725798,6.227718926965377,-0.028381073158325824,0.5125942840855636,-1.624755776497999
1.328306473479266,6.1369562975764715,-0.028205633434049845,0.4958793757911601,-1.6556344863817252
1.3232447199788169,6.049195910138039,-0.02803607212649579,0.47923604019142785,-1.6846887777029689
1.3182131262339203,5.964424810647277,-0.02787052503902078,0.4626650652615024,-1.7117530612071872
1.3132111410463665,5.882629880078792,-0.02770708815602038,0.44616749661056926,-1.7366532639403187
1.3082385602576683,5.803797785652453,-0.027543809496181144,0.429744663682095,-1.7592060176038309
1.3032955362148873,5.727914927061715,-0.02737867986805218,0.41339820954834205,-1.7792177818849773
1.2983825890126957,5.654967376973964,-0.027209622378521394,0.3971301247600172,-1.796483899412181
1.2935006197517438,5.584940815027551,-0.027034480520942733,0.38094278575570556,-1.8107875802174542
1.2886509260871974,5.517820454455986,-0.026851004640683945,0.3648389983728016,-1.8218988156106042
1.283835220380948,5.453590960370253,-0.026656836539865753,0.3488220470242219,-1.829573224546097
1.2790556508180135,5.392236358628981,-0.026449491937184155,0.33289575010102035,-1.8335508404136773
1.2743148259041985,5.333739934129895,-0.026226340438537932,0.3170645221110389,-1.8335548534572388
1.2696158428313753,5.278084117275434,-0.025984582592831405,0.3013334429385407,-1.8292903348011846
1.2649623202835698,5.225250357318156,-0.025721223493896654,0.28570833436452786,-1.8204429838926561
1.260358436368724,5.17521898130547,-0.025433042226614074,0.2701958435542114,-1.8066779642884396
1.2558089725089687,5.127969037461067,-0.02511655621510953,0.25480353249471366,-1.7876389263452495
1.2513193643244627,5.083478122128522,-0.02476797916829158,0.23953997120023982,-1.7629473641266296
1.2468957608309374,5.041722189960286,-0.024383170759767505,0.22441483066906198,-1.732202524295856
1.2425450936850098,5.0026753480125095,-0.023957575306095644,0.20943896875068002,-1.6949821861876866
1.2382751588282306,4.966309636022913,-0.0234861453247845,0.19462449780037316,-1.6508447774376334
1.234094713821044,4.932594797723976,-0.02296324364395505,0.17998481663227808,-1.599333495552564
1.230013595616629,4.901498052024312,-0.02238251418288086,0.16553458003066032,-1.5399833939279155
1.2260428658187834,4.872983878875967,-0.021736705793180724,0.1512895660620534,-1.4723327841928975
1.2221949941090369,4.847013843368032,-0.021017424315114663,0.13726638402612823,-1.3959408218544023
1.218484096334201,4.823546493788037,-0.02021477318306282,0.12348194464049977,-1.3104137660784971
1.2149262530070848,4.802537385413828,-0.019316819340449418,0.1099525928507246,-1.2154430417953819
1.2115399486887526,4.783939300572364,-0.01830878419657412,0.09669279427664358,-1.110858594076897
1.2083466959422882,4.767702752342867,-0.017171801875253485,0.08371329716221619,-0.9967004212581586
1.2053719440245032,4.75377686162992,-0.01588099721124503,0.07101882187051643,-0.8733082063019142
1.2026464305746312,4.742110657771413,-0.014402485565112162,0.05860566544621111,-0.7414212995663411
1.2002082338354387,4.732654720142101,-0.012688589314803664,0.04646030821280144,-0.6022662520674493
1.1981059861574992,4.725362767789306,-0.010669718217858545,0.03456138459602856,-0.45758661274551526
1.1964042631781218,4.72019216184469,-0.008238314886335633,0.022889792566394736,-0.3095485678350991
1.195194247097508,4.717100735769755,-0.005206308231593865,0.011459386044006306,-0.16045666050551416
1.1946253194155285,4.7160298590554035,-0.0011151104570676917,0.00043924411545767303,-0.012294075218779982
