x,y,v_x,v_y,omega
2.375,32.48,0.0,3.5384615384615383,-6.775510204081632
2.3731903074574174,31.781617191373194,-0.018096925425823647,3.44536654780651,-6.282581176843842
2.3680615322623173,31.101409205216413,-0.033190826525179115,3.356713313761272,-5.843823937707973
2.360166155445154,30.43852208045323,-0.04576294164645498,3.272157933870574,-5.45156547263131
2.349968801891747,29.792166822631355,-0.0562105938876162,3.1913946443481818,-5.099417502617221
2.337861403892682,29.161612354710837,-0.06486338610302962,3.1141500348569795,-4.782030872493828
2.3241754724977266,28.54617951158323,-0.07199592784652505,3.040178396419101,-4.494902639937794
2.309192087869853,27.945235878536717,-0.07783791843221391,2.9692579340460195,-4.234223301834742
2.293150076705748,27.358191320289976,-0.08258219320883485,2.901187648421411,-3.9967548977788745
2.276252738766053,26.784494081248727,-0.08639118618811226,2.835784741991068,-3.779733082208599
2.2586734050254145,26.223627362939745,-0.08940215121827777,2.7728824410987314,-3.5807879551060684
2.24056004962475,25.675106303634575,-0.09173140278836596,2.7123281519529887,-3.3978796835600122
2.222039131595673,25.138475299710297,-0.09347777750240283,2.6539818872897745,-3.229245865774762
2.203218806615264,24.613305619512655,-0.09472547230168868,2.59771491468665,-3.0733582764444725
2.18419162123447,24.099193269242566,-0.09554638150625343,2.5434085880142403,-2.928887151210239
2.165036780204797,23.59575707729457,-0.09600202879047239,2.490953331465686,-2.794671562902531
2.1458220603023137,23.102636968979954,-0.0961451702343615,2.4402477516805035,-2.6696947453821704
2.126605430368051,22.61949240799521,-0.0960211291082647,2.391197858166949,-2.553063455102745
2.107436426360798,22.146000984590557,-0.09566891096426446,2.343716375879549,-2.443990642868733
2.0883573214525644,21.681857133334475,-0.09512213811807557,2.2977221366812963,-2.34178085107072
2.0694041241296692,21.226770965796362,-0.09440983511087275,2.2531395386998523,-2.245817864173168
2.0506074315395026,20.780467205485202,-0.09355709079079323,2.209898064411753,-2.1555542293321035
2.031993160669695,20.342684214067948,-0.09258561790728566,2.167931849760768,-2.0705023349582
2.013583176148223,19.913173099310534,-0.09151422730743511,2.1271792978133655,-1.9902267917924956
1.9953958303413153,19.491696896385776,-0.09035923076164014,2.087582731434209,-1.914337906673462
1.9774464288679772,19.07802981521511,-0.08913478397174229,2.049088080272435,-1.8424860759921775
1.959747632540049,18.671956547385903,-0.08785317930754019,2.0116445980196542,-1.774356955675738
1.9423098049909482,18.273271626937944,-0.08652509618346665,1.9752046064599125,-1.7096672888248674
1.9251413138073863,17.881778839961832,-0.08515981565215112,1.939723263301223,-1.6481612919697373
1.908248791772442,17.497290678514283,-0.08376540469729161,1.9051583511742451,-1.589607517171658
1.8916373638218653,17.119627834844923,-0.08234887480847565,1.8714700855193662,-1.5337961205780022
1.875310844473167,16.748618732356057,-0.08091631867850689,1.8386209393693187,-1.480536479081673
1.8592719097803165,16.384099090091226,-0.07947302824999702,1.8065754832789749,-1.4296551058817886
1.8435222472724293,16.025911517876935,-0.07802359682887755,1.77530023886393,-1.3809938233389012
1.8280626868336336,15.673905139531495,-0.0765720075590798,1.7447635445904788,-1.3344081578472162
1.8128933150577669,15.327935241810831,-0.07512171019958595,1.7149354326161503,-1.289765926734649
1.7980135752528144,14.98786294698763,-0.07367568784993854,1.6857875156158584,-1.2469459916327188
1.78342235496552,14.65355490716134,-0.07223651502300801,1.6572928826470246,-1.2058371564812362
1.7691180626376068,14.324883018575601,-0.07080640825612175,1.6294260032103436,-1.1663371914689273
1.755098694784313,14.001724154379236,-0.06938727027681812,1.6021626387533203,-1.128351966859753
1.7413618948974325,13.683959914409591,-0.06798072859198522,1.575479760943124,-1.091794682897114
1.7279050051137905,13.371476390704757,-0.06658816924443646,1.54935547610521,-1.0565851838811935
1.7147251115518145,13.064163947565653,-0.06521076637532335,1.5237689552858222,-1.0226493461335648
1.7018190841001724,12.76191701509197,-0.0638495081410976,1.498700369451018,-0.9899185309434263
1.6891836113403174,12.464633895208554,-0.06250521945745102,1.474130829383167,-0.9583290947692307
1.676828303334105,12.172219199098212,-0.061047860604674216,1.4500161317202458,-0.9241506430558346
1.6647612314356466,11.884580890623472,-0.05962285837991037,1.4263669530271614,-0.8915178202249132
1.6529759510853808,11.601627516765795,-0.05822994512274521,1.4031667855496168,-0.8603425392058573
1.6414660788063682,11.32327085112841,-0.0568687776673819,1.380399870824231,-0.8305426858672835
1.6302253060801037,11.049425748361802,-0.055538949595263495,1.3580511568418536,-0.8020416495389711
1.619247410929547,10.780010006864693,-0.05424000191030298,1.3361062581292311,-0.7747678953643747
1.6085262675050274,10.514944239200016,-0.052971432334892855,1.31455141851753,-0.7486545743261404
1.5980558539316072,10.254151749709546,-0.051732703399308896,1.293373476387163,-0.7236391672421799
1.5878302586441757,9.997558418851114,-0.05052324947500575,1.2725598321971818,-0.6996631594306717
1.5778436854083613,9.745092593818953,-0.049342482883138736,1.2520984181244266,-0.6766717430958471
1.568090457200745,9.496684985041224,-0.04818979919302326,1.2319776696528615,-0.6546135447986497
1.558565019100362,9.252268568179211,-0.0470645818108074,1.2121864989672824,-0.6334403756525188
1.549261940324673,9.011778491280683,-0.04596620594608331,1.1927142700179971,-0.6131070021291544
1.5401759155267407,8.77515198676545,-0.04489404203324124,1.173550775134313,-0.593570935576079
1.531301765455931,8.542328287944535,-0.04384745867485502,1.154686213074832,-0.5747922387404863
1.5226344370718365,8.313248549795873,-0.042825825166091035,1.1361111684117768,-0.5567333477652125
1.5141690031900383,8.0878557737392,-0.04182851365189059,1.1178165921549337,-0.5393589082752313
1.5059006617286141,7.866094736170865,-0.040854900962348714,1.0997937835284044,-0.5226356243090837
1.4978247346157614,7.647911920535996,-0.039904370166180286,1.0820343728202717,-0.5065321189710574
1.489936666411411,7.433255452730812,-0.038976311877322666,1.0645303052315809,-0.4910188057884191
1.4822320226891303,7.222075039641975,-0.03807012534548366,1.047273825656782,-0.4760677698550711
1.4747064882188095,7.014321910642995,-0.03718521935772658,1.0302574643330136,-0.46165265792994375
1.4673558649855445,6.809948761879653,-0.03632101297492377,1.0134740233003938,-0.4477485767363983
1.4601760700756472,6.608909703187628,-0.03547693612404763,0.9969165636198601,-0.43433199877889983
1.4531705001207522,6.411334796083654,-0.03457876342490239,0.9788325074198674,-0.45636674500462776
1.4463398835799537,6.217365323051403,-0.03372740198308195,0.9608622229026323,-0.4801757386646108
1.4396749679884926,6.026978839542025,-0.03292175393152939,0.9430026121911432,-0.5056451638257696
1.4331667252027749,5.840153508301828,-0.03216067392564915,0.9252507002108165,-0.5326639503486112
1.4268063603348118,5.656868075277917,-0.03144297475398252,0.9076036300283067,-0.5611235217351621
1.4205853196158085,5.477101846414147,-0.030767432436050984,0.8900586586093834,-0.5909175494974408
1.414495297287802,5.300834665254975,-0.030132790844012325,0.8726131529823429,-0.6219417130157401
1.4085282416152614,5.128046891277126,-0.02953776588139414,0.855264586796143,-0.6540934638723779
1.4026763601022245,4.958719378870995,-0.02898104924897507,0.8380105372651664,-0.6872717936555233
1.3969321239948418,4.79283345689495,-0.028461311824850753,0.8208486824952707,-0.7213770042291491
1.3912882721440742,4.630370908726562,-0.027977206682824104,0.8037767991886038,-0.7563104794589626
1.3857378142987447,4.471313952734942,-0.027527371770473714,0.7867927607275831,-0.7919744573700962
1.3802740338951416,4.315645223098034,-0.02711043226555549,0.7698945356415012,-0.8282718016901032
1.3748904904059103,4.163347750887638,-0.026725002626757286,0.7530801864624697,-0.865105771699991
1.3695810213080117,4.014404945343301,-0.026369688352228925,0.7363478689808897,-0.9023797892761729
1.3643397437271163,3.868800575253772,-0.026043087456725757,0.7196958319144092,-0.9399972019567409
1.3591610558138831,3.726518750361489,-0.025743791675605896,0.7031224170084325,-0.9778610408057055
1.3540396379061943,3.5875439027015688,-0.02547038740128195,0.6866260595907778,-1.0158737717780442
1.3489704535305644,3.4518607677816817,-0.025221456355017678,0.6702052896080966,-1.053937039205708
1.343948750295648,3.3194543655031445,-0.024995575994146778,0.6538587331772644,-1.0919513999292272
1.3389700607310493,3.190309980716293,-0.0247913196518405,0.6375851146912388,-1.1298160464902216
1.3340302031255227,3.0644131432945727,-0.024607256403425454,0.6213832595259572,-1.1674285176759183
1.329125282420189,2.9417496076016896,-0.02444195064991122,0.6052520974028645,-1.20468439456665
1.3242516912146194,2.822305331214327,-0.024293961405783753,0.5891906664707582,-1.2414769800802288
1.3194061109466206,2.706066452749152,-0.024161841274203604,0.5731981181810013,-1.277696959832174
1.3145855133103541,2.593019268626854,-0.024044135088461052,0.5572737230419706,-1.3132320419374082
1.3097871619821262,2.483150208587446,-0.0239393781938186,0.5414168773521167,-1.3479665731669817
1.3050086147288802,2.3764458097495904,-0.023846094338642355,0.5256271110264465,-1.3817811286431867
1.3002477259812255,2.2728926889820578,-0.023762793137904407,0.509904096648897,-1.414552072009633
1.2955026499608717,2.172477513326843,-0.023687967065633208,0.4942476599032365,-1.4461510827526778
1.2907718444617498,2.075186968180706,-0.023620087925587396,0.47865779155813803,-1.4764446470826458
1.2860540753950709,1.9810077229040672,-0.023557602741200955,0.46313466120823454,-1.5052935085166153
1.2813484222212967,1.889926393482984,-0.023498928996539548,0.4476786330025987,-1.532552074053393
1.2766542844066995,1.8019295018201795,-0.023442449149432273,0.43229028362543426,-1.5580677716171343
1.2719713890591695,1.7170034311745397,-0.0233865043258679,0.4169704228309498,-1.5816803543009512
1.2672997999174953,1.6351343772039115,-0.023329387090874957,0.4017201168753164,-1.6032211469129842
1.2626399278909024,1.556308293993098,-0.023269333175054637,0.3865407152328193,-1.6225122304836763
1.2579925433716785,1.480510834366843,-0.02320451201718366,0.3714338810297219,-1.639365560834516
1.2533587905738477,1.407727283696282,-0.02313301596112539,0.35640162567589767,-1.653582018180183
1.2487402041858708,1.3379424863069573,-0.023052847918643267,0.3414463482173586,-1.664950386247288
1.2441387286662993,1.2711407634885816,-0.022961907277072185,0.326570879966409,-1.6732462618461394
1.239556740559605,1.2073058219938808,-0.022857973789869063,0.31177853498060243,-1.6782308996640192
1.2349970742670882,1.1464206518016553,-0.022738689135300326,0.2970731669416565,-1.679650002890568
1.2304630517777164,1.088467411816783,-0.022601535758417824,0.2824592329070736,-1.6772324790512978
1.2259585169503435,1.033427302102723,-0.02244381251531044,0.2679418642335243,-1.6706891934361774
1.2214878750485656,0.9812804212148158,-0.02226260650246851,0.2535269446455538,-1.659711771681986
1.2170561383727678,0.9320056072642586,-0.022054760255508482,0.23922119486001636,-1.6439715311730028
1.2126689790268155,0.8855802615536206,-0.021816833204014147,0.22503226224637618,-1.623118661972424
1.2083327901250835,0.8419801540777421,-0.021545055813304695,0.2109688125124084,-1.5967818377525669
1.2040547571305695,0.8011792110195834,-0.02123527413183573,0.1970406180691672,-1.5645685238794371
1.199842941583994,0.7631492857989599,-0.020882881333919145,0.1832586341370646,-1.5260663749775716
1.1957063803469288,0.727859917562192,-0.020482731036733308,0.16963504823059797,-1.4808462937441453
1.1916552048189835,0.6952780846753015,-0.02002902424272092,0.15618328063831272,-1.4284679770462727
1.187700786694638,0.6653679664132817,-0.019515157000732024,0.14291790198188073,-1.3684891286787066
1.1838559201809393,0.6380907344107385,-0.018933508136254405,0.12985441804353667,-1.3004799930565898
1.1801350559844477,0.6134044074396954,-0.018275133828662755,0.11700885166688414,-1.2240454648869776
1.1765546110481884,0.5912638193817479,-0.017529315533929918,0.10439702891259028,-1.1388577018864923
1.1731333919556048,0.5716207704770859,-0.016682875391904387,0.09203346013401419,-1.0447027066544061
1.1698931921912699,0.5544244526455877,-0.01571912225144647,0.07992971818098323,-0.9415442160038243
1.1668596588440365,0.5396222503997663,-0.014616211220885803,0.06809230427723462,-0.829606277541147
1.1640635809244744,0.5271609948957234,-0.013344567974735018,0.05652025076320627,-0.7094699792304322
1.161542846417351,0.5169886408035502,-0.011862777096499445,0.04520329015852191,-0.5821670178279734
1.159345499415225,0.5090560588699198,-0.010110692924760467,0.03412252917780027,-0.44923160214830965
1.1575347953388313,0.5033180448312251,-0.007996347839176045,0.02325761120915045,-0.3126481953219621
1.1561987896152557,0.4997312999924226,-0.005363709396579399,0.01260983717888467,-0.17462417086639057
1.1554757582389055,0.4982418010084224,-0.0018666043669219382,0.0022851526611103318,-0.037159558658359626
