x,y,v_x,v_y,omega
2.375,32.48,0.0,2.1538461538461537,-6.408163265306122
2.3737134231327284,31.989791885057144,-0.011187624932795943,2.1088331065264825,-6.066456544313311
2.370014887660189,31.50975571785477,-0.02097355308928405,2.0653944343637143,-5.751428683332791
2.3642076259595814,31.03954068041034,-0.02952437474209014,2.0234319781965513,-5.460303490833191
2.3565590773104903,30.57881747403929,-0.03698474394565668,1.9828567728560644,-5.190655163641482
2.3473055545500854,30.12727634298499,-0.04348067136221368,1.9435878450073905,-4.940356536621965
2.3366562186575677,29.684625351563863,-0.04912224944228884,1.905551210828523,-4.707536133239188
2.324796478917413,29.250588873366986,-0.05400592221122704,1.8686790343617043,-4.4905423130278255
2.3118909133936265,28.82490625907514,-0.05821638669126488,1.8329089160021834,-4.287913183344429
2.2980857866021354,28.40733065571419,-0.06182819410431152,1.7981832871364847,-4.098351224186653
2.283511227239082,27.997627955119256,-0.06490710470484841,1.7644488919499213,-3.9207017902226085
2.2682831176948803,27.595575853297593,-0.06751123915777343,1.7316563412819224,-3.7539348204945506
2.252504738184705,27.200963005513877,-0.06969206093070972,1.6997597264025701,-3.5971292158114108
2.2362682011550596,26.813588264441343,-0.07149521758794411,1.6687162829237965,-3.4494594455582632
2.21965570580707,26.433259990761726,-0.07296126369892152,1.6384860968989499,-3.3101840261032676
2.2027406378246415,26.059795427256976,-0.0741262839743693,1.609031846620633,-3.178635577060072
2.185588535490998,25.69302012879523,-0.0750224319703593,1.5803185747858557,-3.0542122130301244
2.1682579401513635,25.332767441732923,-0.07567839706993724,1.5523134866255168,-2.9363700698759656
2.150801146301094,24.978878027181626,-0.0761198103237153,1.5249857703422778,-2.8246167981764323
2.1332648643440146,24.631199423359632,-0.07636959799871207,1.498306436805481,-2.7185058839112934
2.1156908071934444,24.289585642893485,-0.07644829026711657,1.4722481759436497,-2.6176316788728204
2.0981536343360103,23.95390743276957,-0.07604886501491591,1.4466927816556105,-2.5140133460900564
2.080719704157097,23.624040703057794,-0.07555052784520286,1.4217135636641662,-2.4156855631919876
2.0634103643059802,23.29985561169883,-0.07496547086016088,1.3972872307616144,-2.3223093031916475
2.0462443057253052,22.981227530287676,-0.07430460375440236,1.3733917380310092,-2.233571438637953
2.029237841810733,22.668036767315712,-0.07357769115492307,1.3500062008556615,-2.1491824437444107
2.0124051577808686,22.360168310348513,-0.07279347432215674,1.327110816250419,-2.068874328619904
1.9957585336336034,22.05751158554184,-0.07195977913232196,1.3046867907641442,-1.9923987792742488
1.9793085436527644,21.759960233060248,-0.07108361200540952,1.2827162742931468,-1.919525480391279
1.9630642350713308,21.467411897105865,-0.07017124522444815,1.2611822992232185,-1.850040600720352
1.9470332881865333,21.179768029390893,-0.06922829290422529,1.240068724385249,-1.7837454234038208
1.931222159951293,20.896933704999288,-0.0682597787065605,1.2193601833678187,-1.720455105691929
1.915636212830082,20.61881744968218,-0.06727019626049219,1.1990420367809547,-1.6599975543469352
1.9002798305006379,20.34533107771977,-0.0662635631259785,1.1791003281095502,-1.6022124046462696
1.885156521801997,20.076389539561298,-0.06524346903611458,1.1595217428336937,-1.5469500922949049
1.8702690141705907,19.811910778524805,-0.06421311906307141,1.1402935705271304,-1.4940710087791746
1.855619337666715,19.551815595901566,-0.06317537227497783,1.1214036696749488,-1.44344473176281
1.8412089005710337,19.29602752386649,-0.062132776383120016,1.1028404349778937,-1.3949493230620444
1.8270385574227093,19.044472705646626,-0.06108759881970212,1.0845927669339595,-1.348470687558175
1.8131086702754424,18.797079782445742,-0.06004185463479231,1.0666500435084816,-1.3039019871282571
1.7994191638635075,18.553779786664215,-0.05899733155594468,1.049002093722209,-1.2611431043107189
1.7859695752954106,18.31450604099081,-0.05795561251446467,1.0316391730030523,-1.2201001509838205
1.77275909882687,18.079194062976867,-0.056918095907625574,1.0145519401616674,-1.18068501783068
1.759786626206387,17.847781474733925,-0.05588601383570589,0.9977314358639304,-1.142814960803318
1.7470612232621243,17.620332827883317,-0.05476966394049171,0.9800828845761429,-1.12803692883031
1.734589358794103,17.396926796346904,-0.05368133143360728,0.9625782592187578,-1.116332320796338
1.7223644949931782,17.177530804315687,-0.05262183205269394,0.9452129758352834,-1.1075385957350057
1.7103799285788868,16.962113306613823,-0.051591788941143996,0.927982656354837,-1.101499097095579
1.6986288332367006,16.75064374255482,-0.05059164881699803,0.9108831180712902,-1.0980626432774405
1.6871042984828732,16.543092492126135,-0.0496216968684563,0.893910363917279,-1.0970831381868997
1.675799365238634,16.33943083432501,-0.04868207047275412,0.8770605734837768,-1.0984191999774127
1.6647070583741401,16.139630907479155,-0.047772771827192514,0.8603300947410469,-1.1019338062461674
1.6538204164630246,15.943665671395454,-0.04689367957381379,0.8437154364215677,-1.1074939540583417
1.643132518970399,15.751508871188523,-0.046044559492495814,0.8272132610300121,-1.1149703332561258
1.6326365110806915,15.563135002648366,-0.04522507433104649,0.8108203784496123,-1.1242370115836333
1.6223256263565784,15.378519279013059,-0.044434792835154405,0.7945337401182851,-1.1351711302217578
1.6121932074064254,15.197637599017998,-0.04367319803574262,0.7783504337518009,-1.1476526083794567
1.6022327247249866,15.02046651609811,-0.042939694846333615,0.7622676785950587,-1.1615638556302732
1.5924377938605394,14.84698320862326,-0.04223361701842244,0.7462828211862578,-1.176789490715491
1.5828021910510897,14.67716545105026,-0.04155423349853328,0.7303933316224486,-1.1932160655583963
1.5733198674627034,14.510991585877033,-0.04090075422656527,0.7145968003186609,-1.2107317932478265
1.5639849621543624,14.348440496285878,-0.04027233541118266,0.6988909352565844,-1.2292262787535866
1.5547918138859274,14.189491579363263,-0.03966808431433921,0.6832735597226635,-1.2485902511313796
1.545734971878824,14.034124719783112,-0.0390870635735163,0.6677426105395178,-1.268715295960526
1.53680920563288,13.882320263839198,-0.03852829508686702,0.652296136798863,-1.2894935867337773
1.528009513897326,13.734058993709834,-0.0379907634831654,0.6369322991086468,-1.3108176138847265
1.5193311328893107,13.589322101834561,-0.037473419195229875,0.621649369371992,-1.3325799100944231
1.5107695438493456,13.448091165277887,-0.03697518115229227,0.606445731120834,-1.3546727704645207
1.5023204800199195,13.310348119949204,-0.036494939103587545,0.5913198804329206,-1.3769879660793187
1.4939799331310524,13.17607523454069,-0.036031555582211106,0.5762704274672105,-1.3994164494031802
1.4857441594748737,13.04525508403609,-0.0355838675149962,0.5612960986597507,-1.421848049872842
1.4776096856503609,12.917870522632775,-0.035150687480766274,0.5463957396299507,-1.4441711579461087
1.4695733140592584,12.7939046559069,-0.03473080461577661,0.5315683188559127,-1.4662723957596322
1.4616321282348794,12.673340812036933,-0.03432298516143218,0.5168129321872708,-1.488036272429631
1.453783498087093,12.556162511883777,-0.03392597264540668,0.5021288082749584,-1.5093448219018417
1.446025085149322,12.44235343770605,-0.033538487683036085,0.4875153150096352,-1.5300772211229805
1.4383548479169281,12.331897400266396,-0.033159227381257775,0.47297196707429867,-1.5501093861690665
1.4307710473710145,12.224778304058667,-0.032786864322340736,0.4584984347320472,-1.5693135438315553
1.4232722527875463,12.120980110355955,-0.032420045099119936,0.4440945539871739,-1.5875577760383637
1.4158573479389074,12.02048679774559,-0.03205738836730587,0.42976033827686494,-1.6047055343852568
1.4085255378037074,11.923282319778497,-0.03169748237356369,0.41549599187178315,-1.6206151219905867
1.4012763559110648,11.829350559316776,-0.031338881910286186,0.4013019251866624,-1.6351391398870823
1.3941096724578834,11.738675279114265,-0.030980104639116515,0.3871787722264698,-1.6481238952624928
1.3870257033521558,11.651240068110017,-0.030619626715036423,0.37312741041917336,-1.6594087691046622
1.3800250203523787,11.567028282853965,-0.030255877630852142,0.35914898311171156,-1.6688255412641497
1.3731085624932493,11.486022983417694,-0.029887234187664022,0.34524492502976845,-1.676197671714615
1.3662776490115074,11.408206863071765,-0.02951201347965688,0.3314169910217871,-1.681339538002588
1.3595339940139215,11.333562170936052,-0.02912846476022115,0.31766728841919656,-1.6840556307234382
1.3528797231631124,11.26207062673354,-0.02873476002942323,0.30399831334177185,-1.6841397116059271
1.3463173926977303,11.193713326705506,-0.028328983147812903,0.2904129912498231,-1.6813739428089824
1.3398500111537193,11.128470639684174,-0.027909117234892408,0.27691472197915906,-1.6755280018600438
1.3334810642163264,11.066322092279123,-0.027473030046784454,0.26350742936911153,-1.6663582050397514
1.3272145432130456,11.007246242133352,-0.02701845693826551,0.2501956153767174,-1.653606673993327
1.3210549778632257,10.951220538270306,-0.026542980886254883,0.2369844182149808,-1.6370005974037243
1.3150074740418767,10.898221167723978,-0.026044008864605186,0.22387967349222979,-1.6162516637727267
1.3090777575105672,10.848222887978892,-0.025518743581563575,0.21088797646503551,-1.591055775626619
1.3032722248440032,10.80119884533135,-0.02496414917116614,0.19801674220924484,-1.561093203814769
1.2975980031786174,10.757120380242132,-0.024376908788710135,0.18527425856655086,-1.5260294084932535
1.2920630209944906,10.715956822261834,-0.023753371073261677,0.172669723870818,-1.4855168481946153
1.2866760930163847,10.677675279421226,-0.023089480910266313,0.16021325735184966,-1.4391982294098007
1.281447023643788,10.642240430426764,-0.022380687547096056,0.14791586433912676,-1.3867118273342114
1.2763867353440894,10.609614333016626,-0.02162181940680467,0.13578933053162368,-1.3276997446596606
1.2715074315564316,10.57975626891752,-0.0208069091815241,0.12384600946058351,-1.2618202748960123
1.2668228084548037,10.552622655462518,-0.01992894387611102,0.11209845536554532,-1.188765887040665
1.2623483373138886,10.528167066223464,-0.018979500827497952,0.10055884236535834,-1.1082886916951438
1.2581016505574565,10.50634041711637,-0.017948210097998452,0.08923810639198851,-1.020235428541221
1.2541030818203902,10.487091387111995,-0.016821952833012868,0.07814476321127577,-0.924593682458956
1.2503764364584495,10.470367145760974,-0.015583659009948988,0.06728342244978754,-0.8215495147583065
1.2469501087683124,10.456114436077605,-0.014210494817330398,0.05665318349253544,-0.711552881102902
1.243858726200712,10.44428097959721,-0.012671092727021499,0.04624643807613873,-0.5953797620124037
1.2411456193701156,10.434816980003664,-0.01092114058251188,0.03604921056338298,-0.4741683944062457
1.2388666957832288,10.427676121249064,-0.00889558625998187,0.026045213389646125,-0.3493943190249902
1.23709716077053,10.422814677916577,-0.0064916747200086874,0.016228206892848075,-0.22274382008858773
1.2359461877631657,10.420185022323178,-0.0035167862135939204,0.006638363484535495,-0.09585985294179136
