x,y,v_x,v_y,omega
2.375,32.48,0.0,3.846153846153846,-6.530612244897959
2.3728803155163645,31.684105297146292,-0.02018747127271801,3.733795704833816,-5.993514207111822
2.3669162851964454,30.911169073295582,-0.036612817488419186,3.6275016651729515,-5.52353276886947
2.3578266766733145,30.159972467605478,-0.04995488273187561,3.526751722351836,-5.1099512939457625
2.346201633576286,29.429399215559446,-0.06075981343030082,3.431088773324684,-4.744062960978759
2.332527547572318,28.718423518503634,-0.06946957708367832,3.340108341492571,-4.41874311155014
2.31720664962644,28.026099844189584,-0.07644373668658705,3.2534504614983626,-4.128123028077371
2.3005725527173175,27.35155426258815,-0.08197623387648562,3.1707931728010403,-3.8673386094080127
2.28290266261325,26.693977020025514,-0.08630843378129949,3.0918472325573587,-3.632335010004371
2.264428146302221,26.05261612500206,-0.08963934060945328,3.0163517676660203,-3.4197135392978786
2.2453419820655536,25.426771769992364,-0.09213365212071159,2.94407066099775,-3.226610778746014
2.2258054928775475,24.81579145105053,-0.09392814966982241,2.874789519400703,-3.0506024742515985
2.205953673499089,24.21906567512829,-0.09513679679168692,2.808313108430133,-2.8896266326039033
2.185899552800005,23.63602416634293,-0.09585482891387827,2.7444631657161453,-2.741921612830119
2.165737780510215,23.066132498856142,-0.09616205003649975,2.683076524634227,-2.6059760057225336
2.145547587499075,22.50888909683509,-0.0961255024505515,2.624003494613892,-2.480487839534243
2.1253952377378753,21.963822552076962,-0.09580163813230115,2.5671064554634837,-2.3643312080392143
2.1053360660663265,21.43048921794518,-0.095238092072924,2.5122586315058926,-2.256528838955293
2.085416177104579,20.90847104476687,-0.09447513613419527,2.459343017811322,-2.156229441862499
2.065673865897041,20.397373627129774,-0.0935468753661673,2.4082514358753273,-2.0626889209520503
2.0461408092200792,19.896824437854576,-0.09248223584299196,2.3588837000789336,-1.975254727932799
2.026843067235704,19.406471227005014,-0.09130578305582022,2.311146879440722,-1.8933527779352535
2.0078019277975754,18.925980567283364,-0.09003840206921163,2.264954641717821,-1.816476466448505
1.989034619808598,18.455036529660696,-0.08869786449248052,2.220226668974266,-1.7441774157744894
1.9705549172788293,17.993339475199654,-0.08729930245769726,2.1768881354166165,-1.6760576508711245
1.9523736518968788,17.54060495081473,-0.08585560594182999,2.1348692396779074,-1.6117629610759798
1.9344991488194159,17.09656267823688,-0.0843777567006751,2.094104784873034,-1.5509772493209824
1.9169375978549885,16.660955626751846,-0.08287510962720357,2.054533800698709,-1.4934177065638976
1.8996933701546541,16.233539161400664,-0.0813556303759821,2.0160992026458997,-1.438830678194959
1.8827692888319314,15.81408025929644,-0.07982609650709113,1.9787474840609935,-1.3869881126122197
1.866166860546237,15.402356787547578,-0.07829226811857,1.9424284373567124,-1.337684501151106
1.8498864739398972,14.998156837004043,-0.07675903289418926,1.9070949011531535,-1.2907342340033423
1.8339275698732995,14.601278106676478,-0.07523052964483715,1.8727025305379268,-1.245969309374712
1.8182887876190659,14.211527334231679,-0.07371025372881683,1.8392095879839847,-1.2032373434668673
1.8029680905248322,13.82871976845314,-0.07220114716864716,1.8065767527639869,-1.162399837366117
1.7879628741114946,13.452678679982249,-0.07070567581552124,1.7747669469587835,-1.1233306639317948
1.7732700591203985,13.083234907031542,-0.06922589552824979,1.7437451763812795,-1.0859147435774765
1.7588861716432551,12.720226433093764,-0.0677635090159746,1.7134783849308908,-1.0500468826533969
1.7448074121498354,12.363497993964462,-0.0663199147308786,1.6839353210624581,-1.015630752147333
1.7310297149603364,12.012900711656847,-0.0648962489786347,1.65508641520054,-0.9825779877686983
1.7175487994831755,11.668291753019645,-0.06349342223242103,1.6269036670585473,-0.9508073952836308
1.7043602143478989,11.329534011075342,-0.062112150484500146,1.5993605419348225,-0.9202442473224526
1.6914593754010803,10.996495807280734,-0.060752982342342325,1.5724318751566937,-0.8908196598623734
1.678841598395808,10.669050613076568,-0.05941632246977404,1.5460937839306084,-0.8624700382608369
1.666502127088647,10.347076789240862,-0.05810245188414132,1.520323585933263,-0.8351365841302183
1.6544361573585746,10.030457341692983,-0.05681154554511836,1.4950997240465254,-0.8087648555451667
1.6426552164540673,9.719081796342511,-0.05538789164066656,1.4703816602436708,-0.7788269308512725
1.6311693456281893,9.412843736826154,-0.05400135432007635,1.446171287531166,-0.7503052637635322
1.6199708244313964,9.11163851010463,-0.052651228506522804,1.4224499193405011,-0.7231156797750811
1.6090520850339687,8.815365294341774,-0.051336765754693536,1.3991997545914685,-0.6971799586126934
1.5984057202646786,8.523926918476928,-0.05005718442902079,1.3764038250737256,-0.6724253463431287
1.5880244896675604,8.237229692456406,-0.048811678400677266,1.3540459465502999,-0.6487841127786377
1.5779013238666726,7.9551832473745065,-0.04759942446492083,1.3321106732773127,-0.6261931494924835
1.568029327489329,7.6777003848357985,-0.046419588652637206,1.310583255662768,-0.6045936042896405
1.5584017808642567,7.404696934905861,-0.045271331586147615,1.2894496008128216,-0.5839305484458183
1.5490121406817734,7.136091622068143,-0.04415381300893067,1.2686962357368816,-0.5641526734384905
1.5398540397776932,6.871805938650407,-0.04306619560135803,1.2483102730034692,-0.5452120142543287
1.530921286180709,6.611764025226027,-0.04200764817944092,1.2282793786572854,-0.5270636966748717
1.5222078615440076,6.35589255753343,-0.04097734836057426,1.2085917422245918,-0.5096657062220207
1.5137079190653977,6.1041206394917005,-0.039974484769044576,1.189236048649034,-0.49297867669187123
1.505415780985988,5.856379701922123,-0.03899825884438195,1.1702014520136053,-0.47696569642364267
1.497325935745065,5.61260340661444,-0.038047886307265945,1.1514775509166937,-0.46159213064364074
1.489433034858104,5.372727555403156,-0.03712259833045622,1.1330543653812606,-0.44682545839541
1.4817318895755314,5.136690003943571,-0.036221642455951365,1.1149223151862333,-0.43263512271919125
1.4742174673717705,4.904430579899593,-0.035344283294150104,1.0970721995183166,-0.4189923928788432
1.4668848883070964,4.675891005275847,-0.0344898030360805,1.0794951778507,-0.4058702375545523
1.4597294212987117,4.451014822645444,-0.033657501805677933,1.0621827519626608,-0.393243208026712
1.4527464803321832,4.229747325042169,-0.032846697875544846,1.0451267490209053,-0.38108733047185217
1.445931620639764,4.012035489301752,-0.03205672776654305,1.0283193056497293,-0.36938000657678804
1.4392805348681437,3.797827912651641,-0.03128694624888943,1.0117528529227604,-0.35809992175341754
1.4327890492547004,3.5870747523622555,-0.030536726260094616,0.9954201022142375,-0.3472269603048643
1.4264594791362732,3.379864675534069,-0.029744893915400403,0.9780092009113572,-0.36293692189708254
1.420292002723892,3.1762987109817935,-0.028992976678705592,0.9607142710150821,-0.3806213844024869
1.4142782965647398,2.976352846048677,-0.028280415313220685,0.9435320616812775,-0.400166356601209
1.4084101626893775,2.7800037373039395,-0.027606573975947055,0.9264594501733578,-0.4214610362994449
1.4026795439083115,2.5872286842111727,-0.02697074774849008,0.9094934364244351,-0.44439756006261716
1.3970785375933128,2.398005603893793,-0.0263721695372115,0.8926311380267993,-0.4688707613264417
1.3915994080710796,2.2123130069098558,-0.025810016388818673,0.875869785629761,-0.49477793589971364
1.386234597747575,2.030129973952139,-0.025283415263605627,0.8592067187294307,-0.5220186139033455
1.3809767370728787,1.851436133392717,-0.024791448304932056,0.8426393818364847,-0.5504943372142583
1.3758186534486478,1.6762116395937916,-0.024333157640123795,0.8261653210104094,-0.580108441500249
1.3707533791732334,1.5044371519088315,-0.0239075497447752,0.8097821807511318,-0.610765841942964
1.3657741585130945,1.3360938142996162,-0.02351359939940543,0.7934877012413806,-0.6423728217505859
1.36087445398338,1.171163235496035,-0.02315025326454266,0.777279715935592,-0.6748368225596657
1.3560479519153592,1.0096274696259577,-0.022816433097559225,0.7611561494937206,-0.7080662358165617
1.3512885673837625,0.8514689972427156,-0.02251103863193364,0.7451150160609545,-0.7419701942129125
1.3465904485630191,0.6966707066771178,-0.022232950137049918,0.729154417897124,-0.7764583622261771
1.3419479805778445,0.5452158756398511,-0.021981030674136932,0.7132725443625444,-0.8114407247851116
1.337355788910605,0.39708815299841405,-0.021754128061478306,0.6974676712702221,-0.8468273730406521
1.3328087424253956,0.2522715406501703,-0.021551076559561764,0.6817381606177957,-0.8825282861744713
1.3283019560667837,0.1107503754100847,-0.021370698284361514,0.6660824607163633,-0.918453108119834
1.3238307932897104,-0.027490689172573468,-0.021211804354431443,0.6504991067375103,-0.954510918001555
1.3193908682761304,-0.16246670115898354,-0.021073195774902888,0.6349867217044721,-0.9906099930230531
1.3149780479935917,-0.2941924288235995,-0.0209536640587982,0.6195440179585364,-1.0266575624377974
1.3105884541511759,-0.42268237961869204,-0.020851991583257814,0.6041697991375885,-1.0625595511388928
1.3062184651090274,-0.5479508196127156,-0.02076695167529815,0.5888629627102516,-1.098220311283141
1.3018647177991753,-0.6700117935245231,-0.02069730841853132,0.5736225031164911,-1.1335423402336087
1.2975241097175012,-0.788879145487023,-0.020641816168841774,0.5584475155739774,-1.1684259829565333
1.2931938010496282,-0.9045665406872985,-0.020599218763281073,0.5433372006191067,-1.2027691168434222
1.2888712169972363,-1.017087488045874,-0.02056824840235588,0.5282908694625364,-1.2364668167467534
1.2845540503759436,-1.1264553641158628,-0.02054762418138478,0.5133079502516268,-1.2694109978175059
1.2802402645615283,-1.2326834384036687,-0.02053605024161747,0.4983879953465133,-1.3014900335151316
1.2759280968680005,-1.3357849003370106,-0.020532213506266477,0.4835306897329386,-1.3325883459268273
1.2716160624489998,-1.4357728881339114,-0.020534780960406524,0.46873586071372764,-1.3625859652858043
1.2673029588233489,-1.5326605198582826,-0.02054239642674533,0.45400348904220056,-1.3913580553225564
1.2629878711364895,-1.626460926984656,-0.02055367678143983,0.43933372168519663,-1.4187744008269119
1.258670178282184,-1.7171872908368613,-0.02056720754527847,0.42472688643102313,-1.4446988535545118
1.2543495600235024,-1.804852882313945,-0.02058153777549862,0.41018350858880026,-1.468988732398448
1.2500260052690106,-1.8894711053721238,-0.02059517417204275,0.39570433006048966,-1.491494173593804
1.245699821679561,-1.9710555447945382,-0.020606574298905733,0.38129033110533,-1.51205742667206
1.241371646803542,-2.0496200188521954,-0.020614138806035402,0.366942755158083,-1.5305120919956527
1.237042460964356,-2.1251786375399746,-0.02061620251954528,0.35266313710650615,-1.5466822960704407
1.2327136021538552,-2.197745867161352,-0.020611024247128885,0.33845333547802603,-1.5603818015858322
1.228386783220244,-2.267336602134435,-0.020596775120597585,0.3243155690275362,-1.5714130504575887
1.2240641116795425,-2.3339662449988197,-0.02057152526703541,0.3102524582522936,-1.5795661403193615
1.21974811252748,-2.397650795714945,-0.020533228562130842,0.2962670723774555,-1.5846177383197708
1.2154417544855352,-2.458406951460617,-0.020479705170677244,0.28236298234325763,-1.5863299413018064
1.2111484801835226,-2.516252218234051,-0.020408621515157297,0.2685443202608613,-1.5844490992946496
1.2068722408656964,-2.571205035655268,-0.020317467226045365,0.2548158456555042,-1.5787046309285024
1.2026175363139702,-2.6232849163949723,-0.020203528504681188,0.2411830185321709,-1.5688078766208025
1.198389460820075,-2.6725126016152174,-0.020063857151464908,0.22765207880351274,-1.55445106068431
1.1941937562232896,-2.7189102336231485,-0.019895234246489504,0.21423013079583925,-1.535306470500576
1.1900368732856978,-2.762501546530082,-0.019694127063908728,0.20092523022255676,-1.5110260148114156
1.1859260430412588,-2.803312074940905,-0.01945663716884441,0.18774646892815872,-1.481241401475695
1.1818693602909185,-2.8413693793744486,-0.019178436643920573,0.17470404948655247,-1.4455652882465717
1.1778758822257462,-2.87670328494076,-0.018854687786292124,0.16180933685927965,-1.403593922717822
1.173955746411369,-2.9093461263540448,-0.018479939017300447,0.14907486707679238,-1.3549120185880796
1.1701203143351284,-2.9393329870530565,-0.018047985518323668,0.1365142824375712,-1.2991009377005658
1.1663823498536625,-2.9667019122677445,-0.01755167620992391,0.12414214817853754,-1.2357516833400575
1.1627562469183443,-2.991494064426938,-0.01698263745977396,0.11197358667091982,-1.1644847682857924
1.1592583290849925,-3.013753773607789,-0.016330865715006204,0.10002364362286946,-1.0849796606115905
1.155907256416349,-3.0335284159441187,-0.015584112081598914,0.08830628338976226,-0.9970170635240014
1.1527245964069641,-3.050868031875403,-0.01472693562682986,0.07683291595582903,-0.9005372992961298
1.1497356491064645,-3.0658245830719366,-0.013739229139833425,0.06561042877302803,-0.7957165294463983
1.1469706703687943,-3.0784507642160506,-0.012593901695121314,0.0546389154566405,-0.6830575528987348
1.1444667268781248,-3.0887983791798277,-0.011253179168398308,0.043909798484080914,-0.5634807355397016
1.1422705870728163,-3.0969165409372437,-0.009662438025015766,0.03340602777703418,-0.4383813472829551
1.1404434686707168,-3.102850497608408,-0.00773868961402794,0.02310784528164763,-0.3095962759569988
1.1390698676368458,-3.1066430944725667,-0.005343224994266156,0.013012124853229704,-0.17921177820208664
1.138279763308356,-3.1083452451510283,-0.0021815781342090245,0.003198833989292875,-0.04917429166065787
