x,y,v_x,v_y,omega
2.375,32.48,0.0,2.0,-3.1020408163265305
2.374416600609168,32.024541138704244,-0.005073038181149486,1.9605118373543997,-2.9470371525852075
2.3727362505160223,31.578025358180156,-0.00953870175924583,1.9222340802463491,-2.80319757807379
2.3700908677978365,31.14018146408583,-0.013464626224978158,1.885104129269512,-2.669453310018219
2.3665977539931995,30.7107521435139,-0.01691027642403825,1.8490638757038036,-2.544858271576478
2.362361347655554,30.289492981963154,-0.019928039555489278,1.8140592682157353,-2.428572912609444
2.357474745146795,29.876171573737533,-0.022564156172850774,1.7800399337461608,-2.319850431315215
2.3520210228751695,29.47056671427484,-0.02485951575432794,1.7469588441902952,-2.218025000463131
2.346074389625159,29.07246766466207,-0.026850338593587573,1.7147720220077,-2.12250167416085
2.3397011930671865,28.68167348003279,-0.02856876191052304,1.6834382791165163,-2.0327477088479893
2.332960800774702,28.297992394728603,-0.030043344980645047,1.6529189843981418,-1.9482850786845407
2.3259063729612417,27.921241258092024,-0.031299505571183064,1.6231778559199377,-1.868684003096414
2.318585541558782,27.551245015580434,-0.03235989792846748,1.5941807746156076,-1.793557334802913
2.3110410080947075,27.18783623058176,-0.03324474088957008,1.565895616677232,-1.7225556816133485
2.3033110710108904,26.83085464289548,-0.03397210331753637,1.5382921023338867,-1.655363155758129
2.295430091542894,26.480146760337686,-0.03455815292591294,1.511341659038238,-1.591693661388681
2.2874289059902306,26.13556548035083,-0.03501737361898514,1.4850172973691986,-1.531287644830802
2.279354198791993,25.796972582922315,-0.035197471583078885,1.4592687672266007,-1.470367038643843
2.2712475026805508,25.46423542686881,-0.035295538081637524,1.434097807151676,-1.4125727538177313
2.263126654135285,25.137223806098444,-0.03532053622502145,1.4094815038949986,-1.3577038184142607
2.255007533480199,24.81581264839763,-0.03528051294963789,1.3853981282860162,-1.3055746299887656
2.2469042643922683,24.499881751996995,-0.03518269651063107,1.3618270578064615,-1.256013594422576
2.238829392262479,24.18931553924094,-0.0350335828788419,1.3387487052896394,-1.208861901463275
2.2307940438052514,23.884002826017927,-0.03483901240139656,1.316144453171327,-1.1639724216330258
2.222808070019915,23.583836605733445,-0.03460423790587865,1.293996592780699,-1.1212087110666233
2.214880174354215,23.288713846718995,-0.034333985274118704,1.2722882682145238,-1.0804441124842055
2.207018027699071,22.99853530206994,-0.034032507379306104,1.2510034243859631,-1.0415609419268512
2.199228371651345,22.71320533099417,-0.03370363216613913,1.2301267588816014,-1.0044497521186155
2.191517111313374,22.43263173083356,-0.03335080555535001,1.2096436772976107,-0.9690086643928797
2.183889398751087,22.15672557899206,-0.03297712976888252,1.1895402517588978,-0.9351427620570395
2.176349708103858,21.885401084069052,-0.032585397598326175,1.1698031823542479,-0.9027635388868099
2.168901903226392,21.61857544555498,-0.032178123075293025,1.1504197612463725,-0.8717883971561927
2.161549298643842,21.356168721499188,-0.03175756894687664,1.131377839238788,-0.8421401902353857
2.154294714514188,21.0981037036075,-0.03132577131098692,1.1126657946019696,-0.8137468053385126
2.14714052621514,20.844305799270625,-0.030884561724210582,1.0942725039795382,-0.7865407824861959
2.1400887091051795,20.59470292006364,-0.030435587058055852,1.0761873152116255,-0.7604589661733974
2.1331408789485664,20.349225376292672,-0.02998032734727546,1.058400021927231,-0.7354421866081082
2.1262983284413624,20.107805777197427,-0.02952011184580335,1.0409008397705692,-0.7114349677177998
2.119562060228762,19.870378936447914,-0.029056133481155797,1.0236803841382387,-0.6883852594136233
2.1129328167626342,19.636881782600824,-0.028589461876479583,1.0067296493147115,-0.6662441918619408
2.1064111073114447,19.407253274205758,-0.028121055090386142,0.9900399889032596,-0.6449658497430388
2.1000010243192198,19.18154886545995,-0.027618797015916803,0.9726070436689856,-0.6445251752015991
2.0937045324432972,18.959838697344075,-0.027133306252974877,0.955307461686437,-0.6466708768306172
2.087517653817903,18.742092564505942,-0.02666563831566959,0.9381371716886295,-0.6512642573320451
2.081436189407903,18.528281178204733,-0.026216660901718727,0.9210922744088492,-0.6581712123498062
2.075455760449451,18.318376127703566,-0.02578706917177847,0.9041690342969295,-0.667261905573406
2.069571846513048,18.112349843496567,-0.025377399840421273,0.887363871850906,-0.6784104575435121
2.063779820452103,17.9101755622328,-0.0249880441677953,0.8706733565296549,-0.6914946468279813
2.058074980480436,17.711827293207072,-0.024619259933660587,0.8540942002158345,-0.706395622299493
2.0524525796041595,17.517279786294026,-0.024271182468741135,0.8376232512019631,-0.7229976252996302
2.0469078526168634,17.32650850120808,-0.023943834812095634,0.8212574886758306,-0.7411877205193111
2.041436040851867,17.139489577976622,-0.023637137057437033,0.8049940176846747,-0.7608555344622336
2.036032414871475,16.956199808518406,-0.023350914945971128,0.7888300645607054,-0.7818930003866471
2.0306922952604802,16.776616609222653,-0.023084907758330657,0.7727629727936537,-0.8041941086414629
2.0254110716796188,16.600717994427384,-0.02283877555351086,0.7567901993390981,-0.8276546613254773
2.0201842203241576,16.428482550697634,-0.02261210579832519,0.7409093113544108,-0.8521720302032952
2.015007319923273,16.259889411805787,-0.02240441942675829,0.7251179833573119,-0.8776449168082681
2.0098760664072595,16.094918234317092,-0.022215176364661766,0.7094139948052549,-0.903973113651201
2.004786286361903,15.933549173683303,-0.022043780551482317,0.6937952280972426,-0.9310572654334541
1.9997339493824662,15.775762860746749,-0.02188958448709805,0.6782596670032266,-0.9587986291339663
1.9947151794336915,15.621540378555423,-0.021751893328334253,0.6628053955300364,-0.9870988318012255
1.9897262653169583,15.470863239387228,-0.021629968556301657,0.6474305972368679,-1.0158596248327205
1.9847636703412674,15.323713361877939,-0.021523031232314714,0.6321335550178038,-1.0449826334653092
1.9798240412910226,15.180073048142916,-0.021430264856770447,0.6169126513737113,-1.0743691001294873
1.974904216780668,15.039924960776794,-0.02135081784196418,0.6017663692012549,-1.1039196202379586
1.970001235084112,14.903252099608384,-0.02128380560634933,0.5866932931327548,-1.1335338688832972
1.9651123415255518,14.770037778079374,-0.02122831229417438,0.5716921114673446,-1.1631103168099768
1.9602349955178404,14.640265599105362,-0.021183392120707804,0.5567616187414386,-1.192545933901697
1.9553668773349344,14.513919430265666,-0.02114807033934447,0.5419007189950602,-1.2217358782849
1.9505058947062968,14.390983378154203,-0.021121343822722884,0.5271084298002707,-1.2505731689929187
1.9456501893234492,14.271441761707344,-0.021102181245515193,0.51238388712895,-1.2789483399618533
1.9407981433522676,14.155279084305295,-0.02108952285171703,0.4977263511497208,-1.3067490729389655
1.935948386049161,14.042480004421396,-0.0210822797839911,0.48313521305811313,-1.333859806677757
1.9310998005851172,13.933029304567768,-0.021079332946825655,0.4686100030603778,-1.3601613195725961
1.9262515311888129,13.826911858256079,-0.021079531368864392,0.45415039964995757,-1.3855302826529927
1.9214029907287897,13.724112594657601,-0.0210816900226406,0.4397562403367917,-1.4098387796188938
1.9165538688652084,13.6246164606073,-0.02108458705198047,0.42542753401365474,-1.4329537903625091
1.911704140914167,13.528408379551077,-0.021086960348379057,0.4111644751708741,-1.454736634202815
1.906854077582239,13.435473206983286,-0.02108750340751694,0.3969674602012407,-1.4750423688766456
1.9020042557460362,13.345795681862,-0.02108486038555162,0.38283710607080107,-1.4937191412157014
1.8971555704716137,13.259360373421995,-0.021077620261600056,0.36877427166837473,-1.5106074854367795
1.892309248491811,13.176151622728675,-0.021064309997553453,0.3547800821865754,-1.525539565148417
1.8874668633867118,13.096153478230413,-0.0210433865685276,0.34085595692875065,-1.5383383556256909
1.8826303527439738,13.019349624471186,-0.02101322771614968,0.3270036409775668,-1.548816763763116
1.877802037612693,12.94572330302094,-0.020972121251509164,0.3132252411984673,-1.556776684581042
1.8729846446078695,12.875257224569015,-0.02091825270347798,0.2995232670791599,-1.5620079955187183
1.8681813310740334,12.80793347100964,-0.020849691069010468,0.2859006769153974,-1.5642874934084312
1.8633957137783679,12.74373338623403,-0.020764372371559245,0.27236092982903565,-1.5633777845833592
1.8586319016789816,12.682637454240929,-0.020660080666582835,0.2589080440240322,-1.5590261468846356
1.853894533407621,12.62462516310396,-0.020534426040901246,0.24554666151482374,-1.5509633946406474
1.8491888202253848,12.56967485331645,-0.020384819022021373,0.23228211924615697,-1.538902795787801
1.8445205953662058,12.517763549115063,-0.020208440623012965,0.21912052598328163,-1.5225391167804039
1.8398963708937877,12.468866771628491,-0.020002206963230858,0.20606884346518592,-1.5015479095392659
1.835323403491656,12.422958333206402,-0.019762726968350075,0.19313496890080273,-1.475585210784543
1.8308097710285405,12.380010113209156,-0.019486250971785104,0.18032781368393586,-1.444287905326229
1.826364462366291,12.339991817105496,-0.019168606960820594,0.16765736982615767,-1.4072751219315078
1.8219974838251927,12.302870723264736,-0.01880511948351133,0.1551347505282867,-1.364151197776372
1.8177199871884908,12.268611425813042,-0.018390503444330342,0.1427721838342741,-1.3145109839486568
1.8135444264355471,12.237175587995889,-0.017918720494311577,0.13058292761924223,-1.2579485917235012
1.8094847540654726,12.208521729472878,-0.017382778375903123,0.11858105953738139,-1.19407111654428
1.805556673759104,12.182605083768543,-0.016774441679475366,0.10678107702205603,-1.1225194243687857
1.8017779755858263,12.159377579339488,-0.016083803305548598,0.09519722236103328,-1.0429986859498572
1.798168995135065,12.13878801879773,-0.015298635396721773,0.08384243452380846,-0.9553217973329825
1.7947532621694025,12.120782551766844,-0.01440339039164899,0.07272684400564622,-0.8594686155927586
1.7915584428788458,12.105305545888033,-0.013377646917539813,0.06185581581009383,-0.7556619675108517
1.7886177415327682,12.092300930478114,-0.012193669135308297,0.05122779645007858,-0.6444556884167133
1.7859720319336805,12.081713964938466,-0.010812501291541318,0.040832773459912264,-0.5268179232535909
1.7836731960506396,12.073493077533897,-0.009177375952292411,0.03065320397113274,-0.4041734662582698
1.7817896841453864,12.06759076730826,-0.007200988441214678,0.02067123277354366,-0.27834774310709454
1.7804172396885558,12.063961039127175,-0.004733311183398356,0.010891620975024323,-0.151349236431497
1.779708503610688,12.062544341144815,-0.0014296112328435464,0.0014274919150625374,-0.024975213143605096
