x,y,v_x,v_y,omega
2.375,32.48,0.0,3.4871794871794872,-2.612244897959184
2.3744361776419445,31.859751732988343,-0.006264692867281548,3.404467924061122,-2.442447510098131
2.372830076575133,31.254085990573753,-0.011580874541737557,3.325151436100965,-2.2891978688920656
2.370340040800321,30.662411308064826,-0.016086189622838892,3.249011702887112,-2.1504101345050795
2.367101582076358,30.084173832406528,-0.019896685087859495,3.1758491377606557,-2.024308332667401
2.3632309336292496,29.518854133849192,-0.02311051988001188,3.105480846209758,-1.9093742163050735
2.3588279986713263,28.96596436036276,-0.025810979652470676,3.0377388591950374,-1.80430485326288
2.353978806104763,28.425045689352707,-0.028068937753790494,2.9724685964721997,-1.7079779558315829
2.348757563167855,27.895666038535722,-0.02994487265629648,2.9095275237165232,-1.6194234063898716
2.3432283770726055,27.377418003739404,-0.03149052840203372,2.8487839740203658,-1.5377997677550412
2.3374467037362545,26.86991699621072,-0.03275028644630877,2.7901161096316893,-1.4623748233624516
2.3314605706697176,26.372799555984745,-0.03376230318187717,2.7334110039902257,-1.3925093905120849
2.325311612303551,25.88572182115408,-0.03455945644219902,2.6785638274616446,-1.3276438038511205
2.319035949012833,25.408358135624876,-0.03517013567688529,2.625477122862822,-1.267286586538527
2.3126649354673754,24.94039978025205,-0.035618903717090165,2.5740601590574728,-1.2110049210230713
2.3062257993908655,24.48155381419481,-0.03592705268857522,2.5242283526896387,-1.1584166059682168
2.2997421881355375,24.03154201498915,-0.036113072370624076,2.475902749595479,-1.1091832450453436
2.293234637491236,23.590099907246625,-0.036193045899396634,2.4290095586548057,-1.0630044604920172
2.2867209747111983,23.15697587110011,-0.03618098498991036,2.3834797318620162,-1.0196129620984182
2.280216665742801,22.731930322560046,-0.036089114658943475,2.3392485852497953,-0.9787703326466058
2.273735115014002,22.314734958845904,-0.035928115661045396,2.2962554560184314,-0.940263415334633
2.2672879247771416,21.9051720625393,-0.03570733141518336,2.254443391832765,-0.9039012085762544
2.260885119896829,21.503033859085335,-0.03543494503273723,2.213758868766847,-0.8695121897190057
2.2545353430443966,21.10812192276263,-0.03511813110539922,2.174151534818736,-0.8369420024078624
2.2482460244930267,20.72024662676221,-0.03476318613204369,2.135573976297038,-0.8060514531211346
2.2420235300670273,20.339226633471856,-0.03437564082350819,2.097981504706911,-0.7767147712807283
2.235873290263184,19.964888421464202,-0.033960356996972585,2.061331962044772,-0.7488180946568016
2.2297999131132094,19.59706584604126,-0.033521611336074855,2.025585542654595,-0.7222581478393703
2.223807282979074,19.23559973050142,-0.033063167932098514,1.990704630010313,-0.6969410865705447
2.217898647155217,18.880337485572916,-0.032588341221866865,1.9566536469730609,-0.6727814849087832
2.212076691883295,18.531132754704384,-0.032100050688379206,1.9233989182328466,-0.6497014456823915
2.2063436091579773,18.187845083122777,-0.03160086848181751,1.8909085437850046,-0.6276298176060819
2.200701155509644,17.850339608764752,-0.031093060944108887,1.8591522824152715,-0.6065015048812322
2.1951507037860263,17.518486773362547,-0.03057862487386385,1.8281014442759114,-0.5862568571585498
2.189693288815291,17.192162052121926,-0.030059319245416133,1.7977287917309803,-0.566841129477305
2.1843296477139296,16.871245700570142,-0.029536692991932734,1.7680084477333056,-0.5482040032623015
2.1790602555009135,16.5556225172778,-0.029012109374911898,1.7389158110704772,-0.5302991607028088
2.173885356592235,16.24518162127195,-0.028486767388183478,1.7104274778834008,-0.5130839058934228
2.1688049926749566,15.939816243059663,-0.02796172058157649,1.6825211689197757,-0.49651882701550143
2.163819027395383,15.639423528273536,-0.02743789363590779,1.655175662037187,-0.4805674946045126
2.158927168240368,15.343904353033647,-0.026916096975368734,1.6283707295171195,-0.465196191604106
2.154128985942781,15.053163150195754,-0.026397039664492684,1.6020870797928104,-0.4503736714693043
2.149423931700649,14.767107745723607,-0.025881340803633364,1.5763063032310454,-0.4360709410633274
2.144811352463566,14.485649204485096,-0.025369539608402488,1.5510108216413003,-0.422261065507292
2.140290504508743,14.208701684827986,-0.024862104334076904,1.5261838412154773,-0.40891899249947794
2.135860565502028,13.936182301342047,-0.024359440184980628,1.5018093086282818,-0.39602139392953095
2.131520645215611,13.668010995260786,-0.023861896330762754,1.4778718700523823,-0.3835465228800125
2.1272722226293834,13.404110762339428,-0.023342799071763464,1.4543529401849384,-0.3707362679271042
2.123116330257082,13.144407166855519,-0.022833782842696392,1.4312425651918197,-0.358461126859433
2.1190511561918064,12.888827882957703,-0.02233481788258952,1.408527255895011,-0.3466927928377924
2.115074896266636,12.637302962303188,-0.021845847952637547,1.386194084710709,-0.33540473842170226
2.111185758484234,12.389764735626258,-0.021366794074050347,1.3642306561440605,-0.32457208581185765
2.1073819668133935,12.14614771945243,-0.02089755782417672,1.3426250791207104,-0.3141714878209079
2.10366176442739,11.906388527639535,-0.02043802424252936,1.3213659410225638,-0.30418101858278496
2.100023416450273,11.670425787449965,-0.019988064392104845,1.3004422833060183,-0.29458007311139994
2.096465212269548,11.438200059879254,-0.01954753761594863,1.2798435785907818,-0.2853492749089814
2.092985467466939,11.20965376398561,-0.01911629352415415,1.2595597091163602,-0.27647039090396275
2.0895825254129563,10.984731104982707,-0.018694173742317546,1.2395809464714616,-0.2679262530693186
2.0862547585657545,10.763378005874465,-0.018281013448817142,1.2198979325090062,-0.25970068613560277
2.0830005695101033,10.545542042425694,-0.017876642725082964,1.200501661366219,-0.2517784408695535
2.079818391768227,10.331172381276343,-0.017480887740208437,1.181383462515478,-0.2441451324397707
2.0767066904106177,10.120219721019996,-0.017093571788783783,1.1625349847772621,-0.2367871834363265
2.0736639624917483,9.912636236079187,-0.016714516198655632,1.1439481812317187,-0.2296917711518314
2.070688737332763,9.708375523221022,-0.01634354112340218,1.1256152949701195,-0.22284677876797976
2.0677795766707208,9.507392550566848,-0.015980466232625497,1.1075288456318249,-0.216240750124389
2.064935074691734,9.30964360895911,-0.01562511131167411,1.0896816166763612,-0.209862847776048
2.0621538579633842,9.115086265557288,-0.01527729678109496,1.072066643343881,-0.20370281407224705
2.05943458528004,8.923679319542881,-0.014936844144953228,1.0546772012606385,-0.1977509350138003
2.0567759474331426,8.735382759820993,-0.014603576376132287,1.0375067956492092,-0.19199800666696903
2.054176666917167,8.550157724613022,-0.014277318245818297,1.0205491511060272,-0.1864353039319962
2.051635497580722,8.367966462841451,-0.013957896603570169,1.003798201911434,-0.18105455148179367
2.0491512242311707,8.188772297213834,-0.013645140613663623,0.987248082839856,-0.1758478967022736
2.0467252468690513,8.012759958145427,-0.01331016340988877,0.9684445734757866,-0.2192092061850666
2.044355908321329,7.840123308306229,-0.013015820453687946,0.9497404247375323,-0.26360429209509145
2.04203601632549,7.670844681891403,-0.012760757277859509,0.9311332020938877,-0.3089374782044217
2.039758623616821,7.504906842979796,-0.01254360615179971,0.9126205635906368,-0.3551141954346377
2.0375170300869114,7.342292969058054,-0.01236298862497187,0.894200257762041,-0.40204077337306504
2.0353047845115566,7.182986634891229,-0.012217517767859544,0.8758701218693464,-0.44962423146653757
2.0331156859010937,7.026971796680709,-0.012105800126172283,0.857628080469777,-0.4977720689496374
2.0309437845235916,6.874232776449425,-0.012026437401628974,0.8394721443222519,-0.5463920525285807
2.0287833826491255,6.724754246592909,-0.011978027870217421,0.8214004096390466,-0.5953920007975276
2.0266290350616303,6.578521214532767,-0.011959167546394284,0.8034110576958606,-0.6446795643103963
2.0244755493835247,6.435519007406672,-0.011968451099220635,0.785502354816315,-0.69416200016744
2.0223179862574443,6.2957332567256294,-0.012004472523896513,0.7676726527508339,-0.7437459399009549
2.0201516594290356,6.159149882925373,-0.012065825569532717,0.7499203894742508,-0.7933371493574568
2.0179721357748654,6.025755079733866,-0.012151103921246338,0.7322440904313906,-0.8428402791732731
2.0157752353200955,5.895535298271152,-0.012258901131751794,0.7146423702654148,-0.8921586043253852
2.013557031291733,5.7684772307909675,-0.012387810294501162,0.6971139350699922,-0.9411937511079922
2.011313850254992,5.644567793965454,-0.012536423447061644,0.6796575852134918,-0.989845409735992
2.009042272382679,5.523794111605,-0.012703330689754056,0.6622722187915456,-1.0380110306075558
2.006739131910551,5.406143496694131,-0.012887119000558025,0.6449568357736634,-1.0855855020672815
2.0044015178354435,5.291603432611673,-0.013086370722853879,0.6277105429203105,-1.1324608072970113
2.002026774917599,5.1801615533885155,-0.013299661697646273,0.6105325595592086,-1.1785256577212628
1.9996125050542328,5.07180562283904,-0.013525559006419042,0.5934222243238665,-1.2236651000463954
1.99715656909804,4.966523512382249,-0.013762618284612173,0.576379002973809,-1.2677600937554416
1.9946570892021342,4.864303177345455,-0.014009380558784337,0.5594024974350041,-1.3106870555528216
1.9921124517821,4.7651326315164155,-0.01426436855270728,0.5424924562210075,-1.352317366894667
1.9895213111964651,4.668999919678651,-0.014526082398792483,0.525648786420808,-1.3925168403524641
1.9868825942592645,4.575893087828586,-0.014792994681215333,0.5088715674687967,-1.4311451401437063
1.9841955057126428,4.485800150731233,-0.01506354472569118,0.4921610669462342,-1.4680551517303397
1.981459534803924,4.398709056422831,-0.015336132037852121,0.47551775870266416,-1.5030922949463987
1.978674463130559,4.314607647212849,-0.015609108777314057,0.4589423436304728,-1.536093774690714
1.975840373938226,4.2334836166731975,-0.01588077113749759,0.4424357734767529,-1.5668877628410123
1.9729576630824992,4.155324462028219,-0.01614934948168917,0.425999278134122,-1.5952925047614075
1.9700270518934577,4.080117431273692,-0.016412997063215206,0.40963439691618336,-1.6211153436608372
1.9670496022159494,4.0078494642558375,-0.01666977713131999,0.393343014393296,-1.6441516562271206
1.9640267339367123,3.9385071268309666,-0.016917648193537724,0.3771274014386041,-1.6641836935761287
1.9609602453540982,3.872076537102636,-0.017154447168842065,0.3609902622095197,-1.6809793228640457
1.957852336797929,3.8085432825963856,-0.01737787012192528,0.34493478785993686,-1.6942906672762899
1.9547056379676029,3.7478923270840347,-0.01758545021503318,0.32896471783284853,-1.7038526460658763
1.9515232395281183,3.690107905614699,-0.017774532445906103,0.31308440960420086,-1.7093814226589878
1.9483087295892787,3.6351734061565786,-0.01794224465231088,0.29729891770825184,-1.7105727787468672
1.9450662357974886,3.58307123611743,-0.01808546414535826,0.2816140827267372,-1.707100447472654
1.941800473899207,3.5337826719183383,-0.01820077916888202,0.26603663059652055,-1.6986144618642929
1.938516803801096,3.487287689787376,-0.01828444414346177,0.2505742819697147,-1.684739609360819
1.9352212943715617,3.4435647760857897,-0.01833232729580705,0.2352358702701226,-1.6650741352578058
1.9319207985300797,3.402590715888227,-0.01833984872065911,0.22003146525835948,-1.6391889154717612
1.928623040601327,3.364340359381181,-0.01830190604326216,0.20497249593105138,-1.6066274343956968
1.9253367185492352,3.3287863671838593,-0.018212783424423947,0.19007186181698188,-1.566907074487332
1.9220716246841578,3.295898938334105,-0.018066037298657467,0.1753440142913927,-1.5195224757046641
1.9188387899792778,3.2656455290142574,-0.01785434831112001,0.16080497815134337,-1.4639520891730766
1.9156506596228777,3.2379905769708195,-0.01756932231554801,0.1464722667757395,-1.3996695735019098
1.9125213115219304,3.212895257155793,-0.017201212139421145,0.13236462005789096,-1.3261624087194328
1.9094667362613276,3.190317309751233,-0.016738512978388912,0.1185014622149971,-1.242961053250765
1.9065052083591283,3.170211003589536,-0.016167352601603367,0.10490193958164684,-1.1496830725873453
1.9036577975955042,3.152527325709311,-0.0154705447719983,0.09158337019863758,-1.0460975950051867
1.900949100713576,3.1372145163290455,-0.014626087249426692,0.07855895624875252,-0.9322152627761059
1.898408326096267,3.1242190811263697,-0.01360474183178315,0.06583476822541605,-0.8084053897701808
1.8960709519495988,3.113487368107105,-0.01236608202008544,0.05340648754419338,-0.6755312547315528
1.8939813368541212,3.104967609929961,-0.010851863485222282,0.04125749220185017,-0.5350709617029118
1.8921970057894464,3.09861185283442,-0.008974037233385343,0.029362031081920092,-0.38915365432062865
1.8907963654994622,3.0943761105850527,-0.006588632655328247,0.01770177168882573,-0.24040432558372116
1.8898962105860662,3.0922139373500706,-0.003413088604627084,0.006322375366548089,-0.09149522979121613
