x,y,v_x,v_y,omega
2.375,32.48,0.0,3.641025641025641,-3.4693877551020407
2.373922861412236,31.725999926359904,-0.010258462740607006,3.539927441260945,-3.1986371524142605
2.3708841797677214,30.99269876583967,-0.01868136244524803,3.443893135122255,-2.9599046149562973
2.3662361433934453,30.279074342258582,-0.02558565064309796,3.3525299466023806,-2.7483472842811216
2.3602705822238272,29.584182655135688,-0.03122921763897877,3.265486121234716,-2.5599805220807643
2.3532301088994707,28.907149843518965,-0.03582290925965414,3.1824454179721537,-2.391506269888084
2.345317015798019,28.24716520927376,-0.03953988218274357,3.103122527220289,-2.2401793720329994
2.336700419866195,27.603475125327506,-0.04252293621557604,3.02725922464878,-2.103702693433135
2.3275220303991375,26.97537768947398,-0.044890296804023094,2.9546211168134073,-1.9801442605563941
2.317900828041819,26.362218011061795,-0.046740201837104846,2.8849948680645254,-1.8678713767401618
2.3079368780687926,25.763384038529612,-0.04815455981076496,2.8181858227181658,-1.7654979148082677
2.2977144516457764,25.17830285190129,-0.04920188231319855,2.7540159546944434,-1.6718419083412634
2.287304591156466,24.606437357146845,-0.04993964615642865,2.6923220905859804,-1.5858912428792051
2.2767672268065806,24.047283329557878,-0.0504162047948573,2.6329543626422818,-1.5067757559001658
2.2661529294198095,23.500366761568472,-0.05067234174581761,2.5757748563044336,-1.433744436254704
2.2555043670179584,22.965241477209403,-0.050742538271816025,2.520656423305751,-1.3661467030722276
2.2448575192451368,22.441486980939942,-0.050656011945532334,2.467481636403382,-1.3034169648898923
2.2342426930682824,21.928706513204446,-0.05043757069117295,2.4161418658394447,-1.2450618292328552
2.2236853747983876,21.42652528889885,-0.050108317593543214,2.3665364608804906,-1.1906494637870597
2.213206946825057,20.93458889815189,-0.04968623453341145,2.3185720224239086,-1.1398007120091946
2.202825292158214,20.45256185154132,-0.04918666705557181,2.272161754819624,-1.092181645461729
2.1925553056314104,19.980126254167672,-0.04862272843779492,2.2272248868341635,-1.0474972975392831
2.182409327215517,19.516980594968487,-0.048005637427856726,2.1836861531580647,-1.005486372475284
2.17239751014468,19.06283863933288,-0.047345001342018224,2.1414753290858033,-0.9659167625442522
2.16252813433257,18.617428414516123,-0.04664905401141047,2.100526812026191,-0.9285817374584511
2.1528078737498912,18.180491278594836,-0.045924856299815964,2.0607792443670343,-0.8932966948230483
2.1432420249606414,17.751781064776566,-0.04517846550256427,2.02217517294983,-0.8598963804889537
2.133834702809052,17.331063293808512,-0.04441507879828695,1.9846607410316266,-0.8282325037539753
2.1245890082596004,16.91811444804042,-0.043639155006014486,1.9481854091406738,-0.7981716854088579
2.1155071725776997,16.51272130140369,-0.042854518154944614,1.9127017016853116,-0.7695936872282205
2.106590681365772,16.114680300187498,-0.04206444576817611,1.87816497656414,-0.7423898801560076
2.0978403814120545,15.72379699003546,-0.041271744267226546,1.8445332153600242,-0.7164619155156282
2.089256572846554,15.339885485063778,-0.04047881349944593,1.8117668319893199,-0.6917205693908065
2.080839088713,14.96276797542248,-0.039687702058209685,1.7798284979278027,-0.6680847351159093
2.072587363743702,14.592274269993109,-0.03890015479225125,1.74868298235193,-0.6454805427767275
2.064500493854675,14.228241371245232,-0.03811765367467163,1.718297005723069,-0.6238405879084009
2.056577287652237,13.870513079566049,-0.03734145301521429,1.688639105507257,-0.603103254310053
2.048816311051996,13.518939624636719,-0.0365726098442203,1.6596795128673025,-0.5832121181753755
2.0412159259507603,13.173377321660151,-0.03581201016755068,1.6313900392904774,-0.5641154226453916
2.033774323756343,12.833688250450908,-0.035060391684043866,1.6037439722261186,-0.5457656134892275
2.026489554465483,12.499739955582118,-0.0343183634670008,1.5767159789052245,-0.5281189279640773
2.0193595518827,12.171405165949032,-0.033586423035694396,1.550282017600357,-0.5111350300399776
2.0123821554901067,11.848561532256657,-0.03286497117948065,1.5244192556603535,-0.49477668613401343
2.005555129407673,11.53109138107153,-0.0321543248436982,1.4991059937218003,-0.47900947631127194
1.998885553757448,11.21888218877768,-0.03136544325368355,1.474314885267252,-0.4612484735464221
1.992379606781515,10.911825612595461,-0.03059595651710628,1.4500334593252993,-0.44432935580068006
1.9860332425913114,10.609816586470803,-0.029845607199117826,1.426242979957165,-0.428202009441276
1.9798424733353532,10.312753885952972,-0.02911410000048451,1.4029255964031424,-0.41281986998094655
1.973803376401914,10.020539947801474,-0.0284011088894132,1.380064290753993,-0.3981396310012948
1.9679121002282844,9.733080700196279,-0.02770628324039381,1.3576428292954799,-0.38412098011778895
1.9621648689111624,9.450285402811364,-0.027029253113148823,1.3356457172275058,-0.3707263591862452
1.9565579857866933,9.17206649607136,-0.026369633786557614,1.3140581564868283,-0.35792074626973214
1.9510878361261907,8.898339458965406,-0.025727029646798915,1.2928660064270014,-0.34567145716431513
1.9457508890741453,8.629022674841778,-0.025101037515540114,1.2720557471313587,-0.33394796452724385
1.9405436989383043,8.364037304651731,-0.024491249492469926,1.251614445154796,-0.3227217328666213
1.9354629059270576,8.103307167152131,-0.023897255376544878,1.2315297215080652,-0.31196606784117636
1.930505236416735,7.846758625613763,-0.02331864472176605,1.211789721714493,-0.30165597848584785
1.9256675028204777,7.594320480616457,-0.022755008575922598,1.1923830877836565,-0.29176805112636056
1.9209466031208475,7.345923868543398,-0.022205940944364407,1.1732989319597702,-0.2822803338763224
1.916339520120077,7.101502165415599,-0.021671040015355025,1.1545268121145023,-0.2731722307257422
1.9118433204546923,6.860990895733774,-0.021149909178785908,1.1360567086647795,-0.26442440433212655
1.9074551534150002,6.624327646018845,-0.020642157865900474,1.1178790029059718,-0.25601868671606537
1.9031722496045007,6.3914519827644405,-0.020147402234092792,1.099984456659778,-0.2479379971438662
1.8989919194695588,6.162305374535016,-0.019665265717735258,1.0823641931442505,-0.24016626655155662
1.8949115517255515,5.936831117961887,-0.019195379463287664,1.065009678980782,-0.23268836792850817
1.8909286117021242,5.714974267406646,-0.018737382664590945,1.0479127072596082,-0.22549005213596074
1.8870406396270607,5.496681568077278,-0.018290922812204975,1.0310653815915085,-0.21855788868665782
1.8832452488655478,5.281901392396875,-0.017855655868870245,1.014460101078992,-0.21187921105733767
1.879540124129246,5.070583679438318,-0.01743124638162271,0.9980895461453638,-0.20544206614658825
1.8759264550305037,4.862810873254396,-0.016984649796874376,0.9806990841776949,-0.22408283355783906
1.8724034308615933,4.658678030149915,-0.016567961335605747,0.9634232311030775,-0.2446147263939588
1.8689647846818054,4.458161416702815,-0.016181049900471835,0.9462588017264324,-0.26692875932483245
1.8656042869674785,4.261237955509355,-0.015823690235974353,0.929202733449378,-0.2909188975810877
1.8623157645052135,4.0678851999759935,-0.015495571309404281,0.9122520811540621,-0.3164818245766565
1.8590931175958043,3.878081310144111,-0.015196304018302763,0.8954040124829279,-0.34351671673889456
1.8559303357052366,3.6918050294661597,-0.014925428272819048,0.8786558034975598,-0.37192502466127936
1.8528215116893736,3.509035662455201,-0.014682419497305331,0.8620048347020546,-0.40161025971596
1.8497608547100266,3.3297530531325314,-0.014466694591713836,0.8454485874186181,-0.4324777852798123
1.8467427019519653,3.1539375642005183,-0.014277617389821945,0.8289846405053104,-0.4644346117381884
1.843761529242996,2.981570056869611,-0.014114503647978918,0.8126106674080916,-0.49738919443518725
1.8408119606724922,2.8126318712698968,-0.013976625594916317,0.7963244335415638,-0.5312512337379077
1.8378887772976582,2.647104807378547,-0.013863216070168435,0.7801237939951059,-0.5659314763746115
1.834986925021333,2.484971106394898,-0.01377347227578412,0.76400669156347,-0.6013415171927682
1.8321015217202343,2.326213432494878,-0.013706559163253397,0.7479711551033942,-0.6373936004622849
1.8292278636982284,2.1708148548958803,-0.01366161247489708,0.7320152982204118,-0.6740004198214313
1.8263614315354473,2.018758830161989,-0.013637741456351132,0.7161373182928464,-0.7110749159276144
1.82349789540084,1.8700291846777226,-0.013634031254195173,0.7003354958430118,-0.7485300708316571
1.8206331198930785,1.7246100972159688,-0.013649545010200886,0.684608194268939,-0.7862786980419781
1.8177631684725934,1.5824860815226032,-0.013683325661084624,0.668953859953583,-0.8242332271832872
1.8148843075459284,1.443641968836367,-0.013734397450011138,0.6533710227724782,-0.8623054820822902
1.8119930102625723,1.3080628902576024,-0.01380176715338221,0.6378582970252924,-0.9004064510294812
1.8090859600839866,1.1757342588736641,-0.013884425023622566,0.6224143828217525,-0.9384460478703431
1.8061600541847067,1.046641751541781,-0.013981345445710754,0.6070380679580756,-0.976332862470048
1.8032124067461912,0.9207712902219072,-0.014091487302055812,0.5917282303264533,-1.0139738989717952
1.8002403522055956,0.7981090227423486,-0.01421379403694923,0.5764838409074255,-1.051274300128954
1.7972414485238573,0.6786413028697247,-0.014347193408177996,0.561303967403293,-1.0881370558338481
1.7942134805405099,0.5623546695414561,-0.014490596909415865,0.5461877785802242,-1.1244626937900128
1.7911544634865422,0.44923582510378424,-0.01464289884265652,0.5311345493976115,-1.1601489500788578
1.7880626467314729,0.3392716123803794,-0.01480297501514706,0.5161436670157403,-1.1950904171549177
1.784936517846738,0.2324489903760707,-0.014969681029947147,0.5012146377872122,-1.2291781665657182
1.7817748070745978,0.128755008396233,-0.015141850133291645,0.48634709535410214,-1.2622993434329122
1.7785764923001985,0.028176778334909613,-0.015318290575273733,0.47154080999184267,-1.2943367294520665
1.7753408046343426,-0.06929855514731287,-0.01549778243287753,0.4567956993626759,-1.3251682708723531
1.7720672347261166,-0.16368384687138615,-0.015679073835942168,0.4421118408665752,-1.354666567610089
1.7687555399379993,-0.2549919861720298,-0.015860876527078613,0.4274894858062005,-1.3826983193410964
1.7654057525317073,-0.34323593512126394,-0.01604186067570313,0.412929075615094,-1.4091237241214378
1.762018189031091,-0.4284287704065548,-0.016220648853976276,0.39843126043526805,-1.4337958248276839
1.758593460949255,-0.5105837293912927,-0.016395809068271965,0.3839969203717748,-1.4565597985220162
1.7551324870911185,-0.5897142609590915,-0.016565846723504366,0.3696271897977336,-1.4772521837871095
1.7516365076703801,-0.6658340818268371,-0.01672919537876517,0.3553234851331506,-1.4957000412191381
1.7481071005118891,-0.7389572391060355,-0.01688420613067185,0.3410875365735182,-1.511720042729332
1.744546199647518,-0.8090981799974699,-0.017029135434767917,0.32692142429730287,-1.525117486253425
1.7409561166567413,-0.8762718296204284,-0.017162131144058113,0.31282761973084955,-1.5356852341496
1.737339565153533,-0.940493678103401,-0.01728121650554431,0.29880903248791585,-1.5432025763373642
1.733699688880634,-1.001779878194462,-0.017384271807780776,0.2848690636174516,-1.5474340236148239
1.7300400939431784,-1.0601473547800282,-0.017469013310844893,0.27101166576886376,-1.5481280433533184
1.7263648857996818,-1.1156139278186714,-0.017532969008168187,0.25724141078962726,-1.5450157600218926
1.722678711734852,-1.1681984502828868,-0.017573450656877914,0.24356356506005808,-1.537809658371907
1.7189868096738588,-1.2179209627239231,-0.017587521352581816,0.22998417247362984,-1.526202350003731
1.7152950643746108,-1.2648028659830288,-0.017571957687874593,0.21651014427972698,-1.5098654979393433
1.7116100722740157,-1.3088671132870289,-0.017523205174936208,0.2031493538536242,-1.488449043841625
1.7079392165999399,-1.3501384223642603,-0.017437325054358663,0.1899107325961851,-1.4615809560681279
1.7042907548480115,-1.3886435071102312,-0.01730992972591053,0.17680436022256563,-1.4288678244883914
1.7006739214531443,-1.424411326437962,-0.017136102606157482,0.16384153813674274,-1.3898967849934707
1.6970990496121325,-1.457473344845944,-0.016910295879669385,0.15103482765355847,-1.3442394834866207
1.6935777179903635,-1.4878637943257473,-0.016626195756225075,0.13839802453504033,-1.291459112385077
1.6901229308976022,-1.515619919686955,-0.01627653846054866,0.12594602652411496,-1.2311220023223648
1.6867493451526205,-1.5407821781660687,-0.01585284958689762,0.1136945304198064,-1.162815851267195
1.6834735644439904,-1.563394348243051,-0.01534506192386374,0.10165947031336174,-1.0861774105790603
1.6803145344452928,-1.58350348142541,-0.014740938063733965,0.08985608380437288,-1.0009332040447996
1.6772940923320587,-1.6011596060459397,-0.014025177300399485,0.07829748401019163,-0.9069572516718583
1.6744377575859097,-1.6164150712707581,-0.013178010758163798,0.06699266098810362,-0.8043488680825153
1.671775905174302,-1.6293234227485698,-0.012172964590480683,0.05594401975294125,-0.6935294737718218
1.6693455529556918,-1.6399377733597547,-0.01097324701533209,0.04514503368689072,-0.575346810235182
1.6671931630507195,-1.6483088576703295,-0.009525704460592754,0.03457957879477941,-0.45115473890047936
1.6653792456378302,-1.6544834825003107,-0.00774969947168739,0.024226371966954964,-0.32280873203163685
1.6639867988724044,-1.6585052499438149,-0.005511698294272213,0.014076175114017217,-0.19249672729610884
1.663141566817436,-1.6604232225436704,-0.002538130800663839,0.004190230598863991,-0.06234431166876614
