x,y,v_x,v_y,omega
2.375,32.48,0.0,2.9743589743589745,-8.0
2.373258212349086,31.892054384766407,-0.017417876509138144,2.9050971779769363,-7.502085489288662
2.3682821786352584,31.317673684391153,-0.03234246062914075,2.8387098257756094,-7.050547794845073
2.360536160764596,30.756303483615095,-0.045117718077480135,2.774992181984961,-6.63972883712162
2.3504208609214516,30.20742813605969,-0.05603528035396488,2.71376129356907,-6.26479853493387
2.338282988999891,29.670566730397983,-0.0653434388616424,2.6548527630480043,-5.921614227587396
2.324423206983214,29.14526964103253,-0.0732543813051293,2.5981181306065246,-5.606607357791251
2.309102762745647,28.631115555006488,-0.07995006107053884,2.5434227296538943,-5.3166914400066645
2.292549057422036,28.12770889063914,-0.08558699216556803,2.490643914019598,-5.0491868046363155
2.274960339039356,27.634677541268616,-0.09030019166123716,2.4396695796856207,-4.801758676312934
2.256509675875512,27.15167089108973,-0.0942064399772027,2.390396922103261,-4.572365932594286
2.2373483327632235,26.678358060519404,-0.09740699114567974,2.3427313836000025,-4.359218477845784
2.2176086499943346,26.214426346613827,-0.09998983654320938,2.29658575545574,-4.160741611332102
2.197406505954611,25.75957983038466,-0.10203160385402511,2.251879406835942,-3.975546107262111
2.176843429931497,25.31353812784461,-0.10359915637711634,2.2085376185645864,-3.8024029851841603
2.1560084198035487,24.876035265571147,-0.10475094490236847,2.166491004170034,-3.6402221514108652
2.134979509881361,24.446818664746,-0.10553815431950721,2.125675004081417,-3.4880342503670354
2.113825126529029,24.02564822018394,-0.10600567920381423,2.08602944153919,-3.344975189398361
2.092605262974408,23.612295462940672,-0.10619295634239502,2.047498130893494,-3.210272899433957
2.071372499625086,23.206542796787993,-0.10613467715082353,2.010028530633274,-3.083235972786396
2.0501728920198072,22.808182800242797,-0.10586139890196533,1.973571434818715,-2.963243882694925
2.0290467450861853,22.41701758699535,-0.10540007043425567,1.938080697655734,-2.849738540317583
2.008029289506434,22.03285821854861,-0.10477448536325766,1.903512986811675,-2.7422169863227066
1.9871512736038337,21.655524163690437,-0.10400567366274241,1.8698275617700544,-2.640225048002782
1.9664394821663032,21.28484280010413,-0.10311224071256388,1.8369860740930122,-2.543351820476018
1.9459171919496296,20.920648954001912,-0.1021106614541708,1.8049523869291748,-2.4512248532604213
1.9256045721951323,20.56278447415977,-0.10101553609080323,1.7736924114922599,-2.363505942251783
1.905519037308971,20.21109783715476,-0.09983981277080888,1.7431739585577999,-2.279887442663182
1.8856755578457625,19.865443780969546,-0.09859498186127613,1.7133666032943673,-2.2000890313879418
1.8660869350871312,19.52568296444296,-0.0972912457250374,1.68424156197148,-2.123854858009216
1.8467640437813597,19.19168165031813,-0.09593766733267782,1.6557715792768437,-2.0509510326821325
1.8277160469928133,18.863311409876744,-0.09454230055278574,1.6279308251369966,-1.9811634066689767
1.8089505864823043,18.540448847355762,-0.0931123045523037,1.6006948000728152,-1.9142956076657476
1.7904739515879302,18.222975342524602,-0.09165404439143697,1.574040248238796,-1.8501672974240715
1.7722912291884387,17.91077680996114,-0.09017317960347827,1.5479450773958348,-1.7886126237128956
1.7544064369980563,17.603743473706146,-0.08867474230034438,1.522388285154086,-1.7294788425164485
1.736822642154785,17.301769656100976,-0.0871632061323713,1.4973498908976184,-1.6726250896411061
1.719561631329316,17.00475986545529,-0.08544690212231798,1.4727480155592094,-1.6122854894309577
1.7026422130141476,16.7126219395076,-0.08374728102936517,1.448631243917719,-1.554717374599306
1.6860608581381116,16.425260611781127,-0.08206626773099429,1.4249820333470267,-1.4997603915096656
1.6698136827423733,16.142584042424954,-0.08040548622639063,1.401783660214711,-1.4472652302230016
1.6538965046495147,15.864503659264912,-0.07876629470219478,1.379020171385718,-1.3970927425599264
1.6383048935187194,15.59093400820796,-0.07714981660575686,1.3566763391837904,-1.34911314005157
1.6230342150385617,15.321792612337564,-0.07555696819581989,1.334737619520161,-1.3032052636984481
1.6080796699207451,15.056999839092825,-0.07398848298234696,1.3131901129272434,-1.259255918358329
1.5934363282808475,14.796478774974087,-0.07244493341662947,1.2920205282601356,-1.2171592653758183
1.5790991599243034,14.540155107262962,-0.07092675014880961,1.271216148851111,-1.1768162677627059
1.5650630609962612,14.287957012285627,-0.06943423913161265,1.2507648009222267,-1.1381341828514842
1.5513228774015357,14.039815049785503,-0.06796759681564137,1.2306548240790252,-1.1010260978856166
1.5378734253547344,13.795662063005171,-0.0665269236523747,1.2108750437242861,-1.065410504488268
1.5247095093799499,13.555433084108227,-0.06511223609546765,1.1914147452451418,-1.0312109083743206
1.5118259380435446,13.319065244599738,-0.06372347726858532,1.172263649839751,-0.9983554710454006
1.4992175376718462,13.086497690429628,-0.06236052644840023,1.1534118918613392,-0.9667766805403345
1.486879164277588,12.857671501486706,-0.06102320749418053,1.1348499975678759,-0.9364110486090498
1.4748057138941415,12.632529615212409,-0.05971129634028626,1.1165688651751065,-0.9071988319409404
1.4629921314946526,12.41101675408298,-0.058424527654603126,1.098559746119197,-0.8790837753130203
1.4514334186537674,12.19307935672676,-0.05716260075424731,1.0808142274429866,-0.8520128747321767
1.4401246400923857,11.978665512459777,-0.05592518485956912,1.0633242152268505,-0.8259361588324816
1.4290609292305896,11.767724899037937,-0.054711923758394454,1.0460819189915398,-0.8008064869554063
1.418237492860308,11.56020872343817,-0.05352243994441957,1.0290798370061518,-0.7765793624901796
1.4076496150372075,11.356069665493589,-0.05235633828658546,1.0123107424396438,-0.7532127601854213
1.39729266028055,11.155261824219714,-0.05121320927998903,0.9957676702990982,-0.7306669662633147
1.387172305688554,10.95792367991599,-0.04999033663997127,0.9776137727381373,-0.7455411988725283
1.3772913597130327,10.764204541095882,-0.048819123115241725,0.9595776154629404,-0.7623785278767579
1.3676396127153017,10.5740811857006,-0.047698346862070355,0.9416559384898977,-0.7810557329141059
1.3582071043252892,10.387531030225514,-0.04662673703805377,0.9238456162609485,-0.8014527503777185
1.3489841326510972,10.204532103361714,-0.04560297970386634,0.906143652377039,-0.8234523943012855
1.3399612623621524,10.025063020643614,-0.04462572318558172,0.8885471748039584,-0.846940085491743
1.3311293317499318,9.849102960009851,-0.043693582936624405,0.8710534315336818,-0.8718035877490005
1.3224794588627793,9.676631638187743,-0.04280514593490019,0.8536597866874125,-0.8979327500411233
1.3140030468045545,9.507629287814044,-0.0419589746473473,0.8363637170495598,-0.9252192535237537
1.3056917882807177,9.342076635206595,-0.0411536105910204,0.8191628090249353,-0.9535563623047302
1.2975376694699314,9.179954878702649,-0.040387577516843604,0.8020547560145399,-0.9828386768588727
1.289532973294315,9.021245667480347,-0.03965938423932098,0.785037356208487,-1.0129618889936538
1.2816702821571078,8.86593108077971,-0.03896752713275123,0.7681085107978973,-1.0438225372538248
1.2739424802126493,8.713993607438816,-0.038310492311832804,0.7512662226110561,-1.0753177616317589
1.2663427552302717,8.565416125659432,-0.037686757511943725,0.7345085951827942,-1.1073450564200087
1.258864600110896,8.420181882914154,-0.03709479368181266,0.7178338322699842,-1.1398020200029564
1.251501814112841,8.278274475904126,-0.03653306629873987,0.7012402378303023,-1.1725861003349989
1.2442485038415716,8.13967783047249,-0.03600003641395248,0.6847262164860495,-1.2055943347929485
1.23709908405687,8.004376181373893,-0.0354941614330623,0.6682902744999372,-1.2387230830196427
1.2300482783501732,7.87235405179436,-0.0350138956339062,0.6519310212953979,-1.271867751293556
1.2230911197446566,7.743596232508793,-0.03455769042126014,0.6356471715602783,-1.3049225068648522
1.2162229512710312,7.618087760554783,-0.034123994314993265,0.6194375479798163,-1.337779980591228
1.2094394265730184,7.49581389729153,-0.03371125266513439,0.6033010846527195,-1.3703309560865407
1.2027365105981032,7.376760105700949,-0.033317907084018106,0.5872368312530757,-1.402464043461274
1.1961104804314895,7.260912026774552,-0.032942394582119394,0.5712439580109022,-1.4340653355862543
1.189557926334245,7.148255454813906,-0.03258314639032454,0.5553217615955351,-1.4650180446500844
1.1830757530504958,7.0387763114544555,-0.032238586447167435,0.5394696719989677,-1.4952021166075329
1.176661181453287,6.932460618201471,-0.03190712952492184,0.523687260530866,-1.5244938209326062
1.1703117506044638,6.829294467243031,-0.03158717896331006,0.5079742490535338,-1.5527653128997347
1.1640253203107445,6.7292639902773,-0.031277123973883485,0.49233052060377946,-1.5798841654249138
1.157800074266181,6.6323553250599545,-0.030975336471752723,0.476756131569675,-1.6057128673143164
1.151634523880588,6.538554579341611,-0.03068016738417623,0.4612513256137608,-1.630108284603521
1.1455275129044291,6.447847791824188,-0.030389942377412733,0.4458165495604591,-1.6529210815448352
1.1394782229732856,6.360220889718711,-0.030102956934022637,0.4304524714943225,-1.673995097740383
1.1334861802096599,6.275659642434572,-0.02981747070223459,0.4151600013470641,-1.6931666779638348
1.1275512630367597,6.194149610871406,-0.02953170102676667,0.39994031428458915,-1.7102639514198636
1.121673711378464,6.115676091718999,-0.029243815556189014,0.3847948772394711,-1.7251060576375457
1.11585413744235,6.040224056098282,-0.02895192380495099,0.36972547896771174,-1.7375023169955872
1.1100935383090813,5.967778081797686,-0.02865406752773599,0.35473426403823405,-1.7472513451950147
1.1043933105824448,5.898322278275401,-0.028348209738629514,0.3398237711846285,-1.75414011305821
1.0987552673909944,5.831840203511565,-0.028032222175874415,0.3249969764537536,-1.7579429561679858
1.0931816580762075,5.76831477170985,-0.02770387097199464,0.31025734156337725,-1.7584205435303577
1.087675190955549,5.707728150772152,-0.027360800234588895,0.295608867813593,-1.7553188213095245
1.0822390596152287,5.650061648415019,-0.027000513168615625,0.2810561557577446,-1.7483679576828002
1.0768769732717334,5.595295585780416,-0.02662035026633695,0.2666044705882741,-1.7372813293349956
1.0715931918510748,5.543409157444387,-0.02621746394024875,0.25225981277202714,-1.7217546109608586
1.066392566581856,5.494380276888133,-0.025788788751939178,0.23802899279051307,-1.7014650590764782
1.0612805871011093,5.448185406831577,-0.025331006055529657,0.22391970777505515,-1.6760711242828985
1.0562634363591876,5.404799374435186,-0.02484050136368725,0.2099406161888614,-1.6452125872464316
1.0513480550274281,5.36419517239295,-0.024313311953907818,0.1961014042335103,-1.60851150048808
1.0465422177322965,5.326343748571549,-0.023745060997407415,0.18241283398049823,-1.5655743406429172
1.041854624377774,5.291213789386919,-0.023130872547818083,0.16888675786581747,-1.5159959471576874
1.0372950112579515,5.258771505945479,-0.02246525865040664,0.1555360765486037,-1.459366059001039
1.0328742888969853,5.2289804376278965,-0.021741964959255605,0.14237460662721002,-1.395279576471219
1.0286047170466337,5.201801295862722,-0.020953753544260576,0.12941681102452193,-1.3233520786589883
1.024500132746745,5.177191881885733,-0.02009208945462793,0.11667732874536925,-1.2432426002948878
1.0205762559268072,5.1551071264453725,-0.01914667874474863,0.10417022565824285,-1.154686128455789
1.0168511103830375,5.135499315517354,-0.018104776692948472,0.09190788362195208,-1.0575384825418805
1.013345618619983,5.1183185797794515,-0.016950140937598092,0.07989947375708532,-0.9518356537948521
1.0100844608392556,5.103513725896672,-0.015661436869675797,0.06814906507070367,-0.8378672616129847
1.007097337994339,5.091033451543883,-0.01420979157948878,0.05665367845718586,-0.7162578586687578
1.0044208618922208,5.0808278717450825,-0.012554969441693282,0.045402119530827914,-0.5880385354631883
1.0021014606429233,5.072850024190451,-0.0106390430512814,0.03437635601549629,-0.45467468392111565
1.0002001189674479,5.067056498274116,-0.008374373703472047,0.023558903147869514,-0.3179999689277362
0.9988012874082797,5.063405152441565,-0.005613941888209779,0.012954555177663146,-0.18000568878973897
0.9980361863080032,5.06184311316251,-0.002037069114556178,0.002665837612872913,-0.04247473590142087
