x,y,v_x,v_y,omega
2.375,32.48,0.0,3.333333333333333,-7.142857142857143
2.3730274419584623,31.789144382258723,-0.018786267062264876,3.246243978488335,-6.628322187769356
2.3674334427206456,31.116141989207815,-0.03448991615503627,3.163302621996498,-6.16979394858512
2.3588139910332346,30.460155820452144,-0.04760009991554493,3.084184699486086,-5.7594012070696134
2.3476712491616656,29.820413160388238,-0.05852125124225282,3.008602539217783,-5.390583731471453
2.3344296309024317,29.19619843761903,-0.06758939884568993,2.936299582393705,-5.057842115822346
2.3194488216225215,28.58684717573738,-0.07508497524869193,2.867045768860117,-4.756541414750938
2.3030343884603393,27.99174082032129,-0.08124295962923507,2.800633806531229,-4.482755665738493
2.285446475602436,27.410302278023153,-0.0862609723507965,2.736876120117694,-4.233143819785714
2.2669069666687642,26.84199204088951,-0.09030577939845794,2.675602328774116,-4.00485002989295
2.247605411929842,26.286304796606807,-0.09351855144842448,2.616657140584958,-3.7954229925259275
2.227703954344092,25.742766446017146,-0.09601913984442777,2.559898579316574,-3.6027503093056854
2.2073414397032507,25.210931464908462,-0.09790957102072773,2.5051964788613796,-3.4250047744244814
2.186636858605565,24.690380559099452,-0.09927691562390091,2.4524311955101514,-3.260600193017971
2.1656922387485356,24.180718571162142,-0.10019565444304494,2.4014924991308897,-3.1081548628125444
2.144595083119386,23.68157260443449,-0.10072963726314066,2.3522786125610424,-2.96646125204896
2.1234204315739236,23.192590335764514,-0.10093371078888182,2.3046953747720527,-2.834460713826066
2.102232608926883,22.71343849305627,-0.10085507632579017,2.2586555081636135,-2.711222314258756
2.081086711198668,22.243801477422437,-0.10053442584768894,2.214077974063351,-2.5959250364054105
2.0600298724452384,21.78338011278713,-0.10000689561354513,2.1708874034157852,-2.487842766434574
2.039102347158681,21.33189050827486,-0.09930286902033049,2.1290135919391444,-2.386331582347263
2.0183384371952577,20.889063020781506,-0.09844865444084758,2.088391050854721,-2.290818955767609
1.9977672872781373,20.45464130683712,-0.09746705905553646,2.0489586057584726,-2.2007945491537058
1.9774135691093337,20.02838145430664,-0.09637787588544965,2.0106590373889586,-2.115802348284508
1.9572980708334464,19.61005118568472,-0.09519829817062109,1.9734387590102744,-2.0354339161247705
1.9374382058857236,19.199429125767082,-0.09394327276007204,1.9372475259196287,-1.9593225915279717
1.9178484530183701,18.796304127355096,-0.09262580216710281,1.9020381732421474,-1.8871384865426377
1.8985407374440249,18.400474649399303,-0.0912572033028526,1.8677663787177874,-1.8185841607706248
1.8795247614935366,18.011748182631912,-0.08984732955894047,1.8343904476382982,-1.7533908714067588
1.8608082918999704,17.629940718295252,-0.08840476180835609,1.8018711174727604,-1.6913153141493833
1.8423974097464928,17.254876256056246,-0.08693697298666869,1.770171380041583,-1.6321367838080372
1.8242967282154163,16.886386347617872,-0.08545047016644042,1.7392563193715098,-1.5756546947014969
1.806509582519137,16.52430967290622,-0.08395091741717263,1.7090929635966006,-1.521686410278634
1.7890381957564294,16.16849164603432,-0.08244324222766114,1.6796501494691005,-1.4700653391598462
1.7718838238994996,15.818784048527476,-0.08093172783833759,1.650898398215107,-1.4206392612728291
1.7550468826618402,15.475044687545058,-0.07942009347270448,1.6228098016174595,-1.373268853172842
1.7385270586107318,15.137137077054945,-0.07791156415689926,1.5953579173360029,-1.3278263861804136
1.722323406559971,14.8049301401131,-0.07640893156462972,1.5685176725863321,-1.2841945747898564
1.7064344349988252,14.478297930575081,-0.07491460711295093,1.5422652753948083,-1.242265556023267
1.690858181074602,14.157119372721752,-0.07343066835583972,1.5165781327321517,-1.2019399831277446
1.6755922764422087,13.841278017420166,-0.0719588995717174,1.4914347749019898,-1.1631262193210965
1.6606548157322392,13.530665649641914,-0.07030263099942065,1.46677825155756,-1.1200854866494878
1.6460616358088653,13.225177982226402,-0.06868003493747196,1.4426281047806655,-1.0790818247438605
1.6318056455492607,12.924710638063846,-0.06709130086828648,1.4189656491484208,-1.0399940768588027
1.6178797295248468,12.629163070542567,-0.0655364707927975,1.3957730891494857,-1.0027096633651016
1.6042767767223154,12.338438382266077,-0.06401546065988291,1.3730334658647136,-0.967123878272744
1.5909897050509798,12.052443154566365,-0.06252807906712139,1.3507306074658687,-0.9331392511423289
1.5780114821730287,11.771087287045049,-0.0610740435800347,1.3288490832133457,-0.9006649676066901
1.5653351431251463,11.494283846437892,-0.059652994971224164,1.3073741606643416,-0.8696163424983175
1.552953805140823,11.22194892415597,-0.05826450964138091,1.2862917658301478,-0.8399143402556297
1.540860680031215,10.954001501909023,-0.05690811045012234,1.2655884460455518,-0.8114851378752811
1.5290490844376559,10.690363324864052,-0.055583276155202754,1.2452513353351078,-0.7842597261995568
1.5175124482298732,10.430958781835407,-0.05428944963320502,1.2252681220805484,-0.7581735457870251
1.5062443212899446,10.17571479204178,-0.05302604503278051,1.205627018811132,-0.7331661540191521
1.4952383788923016,9.924560698001393,-0.05179245399238984,1.1863167339544751,-0.7091809204525382
1.4844884258641213,9.677428164169214,-0.050588051037899574,1.167326445399603,-0.6861647477418861
1.4739883996877408,9.434251080949899,-0.049412198260962624,1.148645775736747,-0.6640678157379514
1.4637323726868514,9.194965473747295,-0.04826424936655567,1.130264769049963,-0.6428433466121055
1.4537145534208165,8.959509416736395,-0.04714355316711087,1.1121738691490926,-0.6224473890786437
1.4439292873961995,8.72782295106635,-0.04604945659114337,1.0943638991370375,-0.6028386199810143
1.4343710571912045,8.499848007224188,-0.04498130726595327,1.0768260422168858,-0.5839781616816684
1.425034482076975,8.275528331308038,-0.0439384557267099,1.0595518236512065,-0.5658294138498041
1.4159143172093942,8.054809414976408,-0.04292025729786855,1.0425330937928874,-0.5483578983791455
1.4070054524559508,7.8376384288562555,-0.041926073687305845,1.0257620121133186,-0.5315311162910067
1.3983029109142717,7.623964159207603,-0.040955274328686606,1.009231032159571,-0.515318415587958
1.389801847171913,7.413736947656204,-0.04000723750330319,0.9929328873775505,-0.4996908691219257
1.3815057502520771,7.207051792914385,-0.03900320935227542,0.9754971577826251,-0.512047685223711
1.373415828205507,7.004015789860333,-0.03804366728172562,0.9581790617797744,-0.5264679189153987
1.3655228153210812,6.804604584698353,-0.037127883998518706,0.9409752730962181,-0.5428327729557044
1.3578176061673835,6.6087945080982635,-0.03625506032241287,0.9238825992855718,-0.5610268534486001
1.3502912699153142,6.416562547695879,-0.03542433255443662,0.9068979759752359,-0.5809379043000384
1.3429350631791264,6.22788632175363,-0.03463477921878098,0.8900184615699976,-0.6024565510190445
1.3357404415025993,6.0427440538877235,-0.0338854272243332,0.8732412323910079,-0.6254760527954064
1.328699069607794,5.861114548772303,-0.033175257488096924,0.8565635782320502,-0.6498920618237719
1.3218028305153364,5.682977168734581,-0.03250321005911807,0.8399828983176904,-0.6756023888742659
1.3150438336374246,5.50831181115792,-0.03186818877813784,0.8234966976505167,-0.7025067741329617
1.3084144219376954,5.337098886612203,-0.0312690655049981,0.8071025837372682,-0.730506662351775
1.3019071782456761,5.169319297632736,-0.030704683942805133,0.7907982636862405,-0.7595049813566365
1.2955149308077574,5.004954418070227,-0.03017386308499174,0.7745815416709855,-0.789405922965104
1.2892307581514217,4.843986072935184,-0.029675400308681578,0.7584503167580017,-0.8201147253597826
1.2830479933348213,4.68639651866021,-0.02920807413513127,0.7424025810988983,-0.8515374559518561
1.276960227649707,4.532168423703332,-0.02877064667548266,0.7264364184904282,-0.8835807937494414
1.2709613138421356,4.381284849414406,-0.028361865777577367,0.7105500033088723,-0.9161518102180186
1.2650453689123398,4.2337292310849755,-0.02798046688714613,0.6947415998285656,-0.9491577475844817
1.2592067765525918,4.089485359099495,-0.027625174634262905,0.67900956193792,-0.9825057934918927
1.253440189279874,3.948537360102641,-0.027294704153524557,0.6633523332701982,-1.016102850858275
1.2477405303186386,3.8108696780933613,-0.026987762143955957,0.647768447770569,-1.0498553017291055
1.2421029952879505,3.676467055351253,-0.026703047672120978,0.6322565307257066,-1.0836687638388809
1.23652305374685,3.545314513094869,-0.026439252719313494,0.6168153002874728,-1.1174478385114932
1.2309964506518691,3.4173973317642314,-0.026195062470978712,0.601443569528118,-1.15109584843136
1.2255192077813342,3.2927010308113154,-0.02596915534364019,0.5861402490710782,-1.1845145637065408
1.2200876251823898,3.171211347872216,-0.025760202741545404,0.5709043503489323,-1.2176039145206676
1.2146982826986725,3.052914217182977,-0.025566868531952038,0.5557349895485685,-1.2502616885317648
1.2093480416392541,2.9377957470874883,-0.025387808224413486,0.5406313923132365,-1.2823832110224689
1.2040340466529595,2.825842196469978,-0.025221667835535085,0.5255928992821085,-1.3138610056376472
1.1987537278765057,2.7170399499265123,-0.02506708241640565,0.5106189725604314,-1.3445844333623325
1.1935048034301874,2.611375491468774,-0.024922674215198084,0.4957092032275416,-1.3744393071964216
1.18828528234116,2.508835376529234,-0.02478705044220466,0.48086332000615833,-1.4033074797751082
1.1830934679818605,2.4094062020089417,-0.024658800598742734,0.4660811992347269,-1.4310664009696454
1.1779279621198848,2.3130745740772305,-0.024536493324836303,0.45136287630538957,-1.4575886422884414
1.1727876696858877,2.2198270733960292,-0.024418672713231476,0.4367085587536671,-1.4827413846939654
1.1676718043779535,2.1296502173996004,-0.02430385402899869,0.42211864121233317,-1.5063858662720657
1.162579895234632,2.0425304192128095,-0.024190518764538534,0.4075937224713774,-1.5283767860600546
1.157511794324708,1.958453942736888,-0.024077108949023356,0.3931346249183528,-1.5485616602919732
1.152467685720077,1.8774068533702675,-0.023962020618890786,0.378742416668507,-1.566780127402602
1.1474480959392275,1.7993749637632988,-0.023843596341582278,0.36441843673120783,-1.5828631984163897
1.1424539060732453,1.7243437739288439,-0.023720116667772784,0.3501643235969475,-1.596632449934624
1.1374863658345795,1.6522984049463112,-0.02358979036713882,0.3359820476652625,-1.6078991579688002
1.1325471098018183,1.5832235254052058,-0.02345074327820636,0.3218739479642972,-1.6164633725578257
1.1276381761724998,1.5171032696376905,-0.023301005572444945,0.30784277363109536,-1.6221129357487623
1.1227620283820052,1.4539211466915347,-0.023138497194170337,0.2938917306180053,-1.6246224495412036
1.1179215800019442,1.3936599389014717,-0.022961011187363774,0.2800245340492703,-1.6237522064049892
1.1131202233992505,1.3363015888386442,-0.022766194552576682,0.26624546654908554,-1.6192471038564376
1.1083618627220355,1.281827073371499,-0.022551526182804805,0.2525594426618164,-1.610835577578652
1.1036509518871265,1.2302162635831593,-0.022314291292519387,0.23897207913188465,-1.5982286065047266
1.0989925383879853,1.1814477694009113,-0.022051551556444202,0.22548977022286068,-1.5811188707422774
1.094392313937371,1.1354987680649167,-0.021760109877977326,0.21211976631043705,-1.5591801829122787
1.0898566732336321,1.0923448160895468,-0.02143646825287042,0.1988702525026035,-1.5320673706756074
1.0853927825359482,1.0519596452917206,-0.02107677648697666,0.18575042176240236,-1.4994168703361057
1.081008660321422,1.0143149449822353,-0.02067676841327369,0.17277053356602384,-1.4608484086557778
1.0767132731873974,0.9793801348357078,-0.02023168048219861,0.1599419440199553,-1.4159683160179652
1.0725166515365265,0.9471221366893694,-0.01973614476418976,0.14727708594517883,-1.3643752459021197
1.0684300317320545,0.9175051591301369,-0.019184043849830187,0.1347893669998906,-1.3056693921052391
1.0644660348067756,0.8904905169041939,-0.018568307819493365,0.1224929399138661,-1.2394667105767752
1.060638897201756,0.8660365186396142,-0.017880621752122492,0.11040228165356109,-1.165420160197566
1.0569647775828193,0.8440984715057667,-0.01711099366632219,0.09853150057355367,-1.0832505089908833
1.0534621773656205,0.8246288694484392,-0.01624710364033198,0.08689328092478771,-0.9927895986453642
1.0501525339702196,0.8075778486398058,-0.015273309649202024,0.07549739344314388,-0.8940386119899465
1.047061079348359,0.7928939990401069,-0.014169115320898285,0.06434879322066939,-0.7872417989151822
1.0442181093989629,0.7805255906786606,-0.012906788959065803,0.053445572126430654,-0.6729704911471533
1.0416608989811715,0.7704221621859126,-0.01144759597228093,0.04277755637591457,-0.5522008464946486
1.0394366725067974,0.7625361516933644,-0.009735513307473636,0.032327305457890455,-0.4263509675373995
1.0376074908871962,0.7568236954729883,-0.0076852640220621046,0.02207703949806366,-0.29722446203855013
1.036259499215729,0.7532424608778108,-0.00515275189667229,0.01202995664649417,-0.1668034957865639
1.0355273638665254,0.7517393095088245,-0.0018199657147894613,0.002285770677176207,-0.03687456797738217
