x,y,v_x,v_y,omega
2.375,32.48,0.0,2.9743589743589745,-5.673469387755102
2.3733247838007254,31.804716605969663,-0.014567097384996815,2.8976705389482684,-5.272467688466513
2.368570279452791,31.146664939292705,-0.026776418683997494,2.824517866938333,-4.914095009450521
2.3612365241344317,30.50506233214091,-0.03699536669304107,2.7546352387294544,-4.592492264281454
2.3517462171296155,29.8791839468636,-0.04552904204448966,2.687785502812393,-4.30275370715572
2.3404577040238626,29.268356688364634,-0.05263194148379844,2.62375587543946,-4.040749668216767
2.327675550708025,28.671953990772142,-0.058517217784350616,2.5623545384083055,-3.8029863062970097
2.3136592031211642,28.08939131595973,-0.06336406557965729,2.503407851264817,-3.5864937860245636
2.2986301155315974,27.520122238155867,-0.0673236525904893,2.4467580426818283,-3.3887364873107386
2.2827776456068976,26.963635016033443,-0.07052391197211758,2.392261280121873,-3.20754043840599
2.266263950585633,26.41944957403916,-0.07307343603888221,2.339786041567537,-3.041034317713318
2.2492280700027534,25.887114830188203,-0.07506465598615683,2.289211731049476,-2.887601220888463
2.2317893427318674,25.366206319432735,-0.07657645071720014,2.2404274929111097,-2.7458390246821165
2.2140502767933365,24.856324070945938,-0.07767629657437265,2.193331189582769,-2.61452765720363
2.1960989674048754,24.357090704914327,-0.0784220459339845,2.1478285150399374,-2.4926019477395065
2.178011140626527,23.868149720183396,-0.07886340431252409,2.103832221750799,-2.3791290077720344
2.1598518855630746,23.389163948708855,-0.07904316145662621,2.0612614432451832,-2.2732893098866818
2.1416771265992574,22.919814156489284,-0.0789982208374373,2.0200410977945755,-2.1743607984585145
2.123534877923716,22.459797773690784,-0.0787604632977021,1.9801013613228131,-2.0817054968554243
2.105466315162756,22.008827739167927,-0.0783574737541238,1.9413771997455052,-1.9947581789119608
2.0875066929222763,21.566631446649012,-0.07781315442396353,1.9038079525929028,-1.9130167539891507
2.069686132136847,21.132949781574077,-0.0771482437102005,1.8673369611021924,-1.8360340798522563
2.0520302971235713,20.70753623901735,-0.07638075640524394,1.831911235043211,-1.7634109695236782
2.0345609789582166,20.290156114343972,-0.07552635807609943,1.7974811534209512,-1.6947901999968424
2.0172965990927074,19.880585759284706,-0.07459868423267595,1.764000194920502,-1.629851364380139
2.0002526449056885,19.47861189699477,-0.07360961304575134,1.7314246945572038,-1.5683064363435806
1.9834420470335137,19.084030990419173,-0.07256949888620143,1.699713623491493,-1.5098959379619363
1.9668755067970674,18.69664865893855,-0.07148737273507104,1.668828389383462,-1.4543856202019596
1.950561780763681,18.316279138833107,-0.07037111451176808,1.6387326550117054,-1.4015635801867357
1.9345079284173874,17.942744783591458,-0.06922760154295753,1.6093921731765441,-1.351237751618333
1.918719528017828,17.575875600517897,-0.06806283671408081,1.5807746361587642,-1.3032337148520552
1.9032008649782766,17.21550882046443,-0.06688205928201958,1.552849538219226,-1.2573927814911725
1.8879550964619727,16.86148849784127,-0.06568984085975282,1.5255880498082586,-1.2135703153298922
1.8729843953632215,16.513665138347477,-0.06449016869460464,1.49896290231167,-1.1716342572715244
1.8582900763891042,16.17189535211753,-0.06328651803685198,1.4729482822965583,-1.131463826695574
1.8438976211948133,15.83604533840374,-0.06186526626132843,1.4474866195624916,-1.0868642479652983
1.829829550478204,15.505986504246245,-0.06046578344831754,1.422590199198316,-1.044524487112704
1.8160807144276294,15.181591396099606,-0.05908931264363494,1.3982368281637791,-1.004300999824883
1.8026457076818567,14.862737535051142,-0.057736832971778486,1.3744054418228482,-0.9660610895658304
1.7895189259334146,14.549307165569935,-0.05640909527554491,1.3510760319267885,-0.929681958747589
1.7766946148615017,14.241187020187958,-0.05510665317587332,1.328229580090403,-0.8950498538830843
1.7641669123785177,13.938268098906214,-0.05382989015442102,1.3058479962726044,-0.8620592943465
1.7519298850452407,13.640445462225301,-0.05257904317842363,1.2839140618222853,-0.8306123756273909
1.7399775593983273,13.347618036795868,-0.051354223316474615,1.2624113766945082,-0.8006181390582038
1.7283039488376222,13.05968843277067,-0.05015543373313567,1.2413243104811205,-0.7719920009453777
1.716903076637517,12.776562772017861,-0.04898258539821263,1.2206379569346002,-0.7446552348619286
1.7057689955745152,12.498150526425476,-0.04783551080180395,1.200338091694843,-0.7185345015815365
1.6948958046006157,12.224364365590613,-0.046713975927756626,1.1804111329561384,-0.6935614217652109
1.6842776629378455,11.955120013244496,-0.04561769070502684,1.1608441048361906,-0.6696721870640348
1.6739088019220634,11.690336111816766,-0.04454631812786009,1.141624603231043,-0.6468072057858663
1.663783534883092,11.429934094589854,-0.04349948221102065,1.1227407639594904,-0.6249107796992713
1.6538962653124551,11.173838064937414,-0.04247677492495239,1.1041812330182488,-0.6039308089221467
1.6442414935387997,10.921974682180032,-0.04147776223726996,1.0859351387850653,-0.5838185221721235
1.6348138221038537,10.674273053627306,-0.040501989370956,1.067992066021257,-0.5645282299466635
1.6256079600079845,10.430664632407986,-0.03954898537573348,1.0503420315380625,-0.5460170984577107
1.6166187259736202,10.191083120719782,-0.03861826709699967,1.0329754614028386,-0.5282449423731062
1.6078410508566026,9.955464378157718,-0.03770934261619753,1.0158831695716408,-0.5111740346184063
1.5992699793195946,9.72374633480489,-0.0368217142273491,0.9990563378442506,-0.4947689316714543
1.590908243552981,9.495970529346266,-0.03588903156928873,0.9816028400568213,-0.49688493987066135
1.5827567827013995,9.272193737380551,-0.03499323670533404,0.9642823074711238,-0.5015795689438907
1.5748071013631753,9.052385844356031,-0.034134427105312865,0.9470906753507982,-0.5087135348669884
1.5670506977428362,8.83651765080641,-0.03331256089763533,0.9300240511676412,-0.5181523280521234
1.5594790942375365,8.624560833719666,-0.03252746958323247,0.9130787061083943,-0.529765874976325
1.5520838652191289,8.416487909787367,-0.03177886970726832,0.8962510672159398,-0.5434282149808713
1.5448566622423923,8.212272200392846,-0.03106637356870133,0.8795377101277355,-0.559017190791167
1.5377892368922597,8.011887798204658,-0.030389499041146368,0.8629353523782465,-0.5764141513828914
1.5308734614667046,7.815309535249035,-0.029747678572376188,0.8464408472358484,-0.5955036658861105
1.5241013476771044,7.622512952341371,-0.029140267424148183,0.8300511780481904,-0.616173247275257
1.5174650635343152,7.433474269762389,-0.028566551208801298,0.8137634530733799,-0.6383130846398627
1.5109569485762706,7.248170359069526,-0.028025752774194924,0.7975749007776043,-0.6618157828689811
1.5045695275815762,7.066578715938061,-0.027517038484016657,0.7814828655829771,-0.6865761086116359
1.4982955229032477,6.888677433929978,-0.027039523936230898,0.765484804052528,-0.7124907413964977
1.4921278655473604,6.714445179091165,-0.02659227915844045,0.7495782815023732,-0.739458028806391
1.486059705112897,6.543861165279452,-0.02617433331515491,0.7337609690342535,-0.7673777446071159
1.4800844187014417,6.3769051301272555,-0.025784678958370725,0.7180306409848424,-0.7961508487253166
1.474195618898544,6.213557311542971,-0.025422275849437445,0.7023851727915539,-0.8256792479564935
1.468387160922517,6.053798424654964,-0.02508605437688201,0.6868225392780629,-0.8558655562614415
1.462653149031135,5.897609639100846,-0.024774918591658365,0.6713408133664395,-0.8866128534769624
1.4569879422721068,5.7449725565626295,-0.024487748878152176,0.6559381652267501,-0.9178244412241472
1.4513861596593598,5.5958691884454375,-0.024223404276169702,0.640612861879255,-0.9494035947442238
1.4458426848540051,5.450281933593388,-0.02398072446604335,0.6253632672690028,-0.9812533093272172
1.440352670426436,5.308193555931108,-0.02375853142586145,0.6101878428377683,-1.013276039921654
1.4349115417742984,5.169587161913007,-0.02355563076664056,0.5950851486239945,-1.045373432423367
1.4295150007701185,5.0344461776545515,-0.023370812747968074,0.5800538449277832,-1.0774460450371577
1.4241590292121828,4.902754325610566,-0.02320285297320986,0.565092694585147,-1.1093930579856253
1.4188398921528915,4.774495600654333,-0.023050512759758713,0.5502005659038391,-1.141111969703851
1.4135541411802857,4.6496542453983345,-0.022912539175945223,0.5353764363222526,-1.1724982775058594
1.4082986177308614,4.528214724581993,-0.022787664732090342,0.5206193968633192,-1.2034451405380175
1.403070456515172,4.4101616983339795,-0.022674606708688105,0.5059286574672394,-1.2338430226452248
1.3978670891421958,4.295479994095693,-0.02257206609980092,0.4913035533004606,-1.2635793125677857
1.392686248034118,4.184154576968446,-0.022478726144352566,0.4767435521538553,-1.2925379186609
1.3875259707301342,4.07617051821876,-0.02239325041202921,0.4622482630608079,-1.320598835086562
1.3823846046863084,3.971512961643853,-0.02231428040384723,0.44781744628621006,-1.347637676172881
1.3772608126885655,3.870167087461983,-0.022240432620002935,0.43345102486050247,-1.373525175374559
1.3721535790077517,3.7721180733492155,-0.022170295039248045,0.4191490978592155,-1.3981266450103873
1.3670622164396122,3.677351052194709,-0.022102422944573534,0.4049119556582376,-1.4213013927145601
1.3619863743887741,3.585851066089731,-0.022035334019235506,0.3907400974285131,-1.4429020903417027
1.3569260481747016,3.497603016000774,-0.021967502624872903,0.37663425117111937,-1.4627740909455733
1.3518815897595182,3.412591606503124,-0.021897353159331015,0.3625953966345383,-1.4807546894597503
1.3468537201230244,3.330801284867672,-0.021823252375397843,0.34862479149982445,-1.4966723229203482
1.3418435435397764,3.2522161736997184,-0.02174350052241068,0.33472400126499996,-1.5103457065952708
1.3368525640474729,3.1768199962241717,-0.0216563211497943,0.3208949333049843,-1.521582903380447
1.3318827044360997,3.104595993197389,-0.021559849383886352,0.307139875623556,-1.5301803255210535
1.3269363281346092,3.0355268303038017,-0.021452118455162462,0.293461540842407,-1.5359216704483432
1.322016264428165,2.9695944947694244,-0.021331044209569404,0.27986311597826347,-1.5385767967737272
1.3171258375067438,2.9067801798015616,-0.021194407281049155,0.26634831852488666,-1.537900552952268
1.3122688999289205,2.8470641553568363,-0.021039832526110556,0.2529214592553333,-1.5336315808357481
1.3074498711886553,2.7904256236683267,-0.020864765215325723,0.2395875119491061,-1.5254911307602501
1.302673782206567,2.7368425579597826,-0.020666443324572167,0.22635218986431174,-1.513181946104982
1.2979463267441538,2.6862915228917466,-0.020441865044238155,0.21322202811861588,-1.496387306540858
1.293273920981379,2.6387474756004323,-0.020187750284237797,0.2002044700667331,-1.4747703649826123
1.2886637728397499,2.5941835468275016,-0.019900494425581068,0.1873079540457084,-1.447973980081537
1.2841239631308883,2.5525708027817764,-0.019576111738432194,0.17454199417797894,-1.4156213432290068
1.2796635413567101,2.513877990298095,-0.019210164558769234,0.1619172448105411,-1.3773178394575447
1.275292640132734,2.478071270966808,-0.018797672171457357,0.14944553198325716,-1.3326547828537776
1.271022613999095,2.4451139547722036,-0.018332989860185958,0.13713982623069412,-1.2812159513555528
1.2668662112325821,2.414966251173965,-0.017809642892100134,0.12501411810182017,-1.2225882376980202
1.2628377918450768,2.387585066451347,-0.017220090912294567,0.11308314035571396,-1.1563782509508105
1.2589536123317615,2.3629238914767683,-0.016555383116533567,0.10136185942324655,-1.0822373338462385
1.2552322096475677,2.3409328443197097,-0.015804640224282965,0.08986463759466533,-0.9998981030529446
1.2516949360619256,2.321558955659629,-0.014954260520429658,0.07860395944950817,-0.9092259566605569
1.2483667271906385,2.3047468052353537,-0.01398668618641451,0.0675886529354997,-0.8102882606073747
1.245277234365042,2.29043961653392,-0.012878468818772758,0.056821683598710995,-0.7034405639576448
1.2424625320138085,2.2785808553451403,-0.011597203800648295,0.04629797891240736,-0.5894206281739136
1.239967752177699,2.2691161822660533,-0.010096533904652165,0.0360035261231168,-0.46942454806450046
1.2378513091253707,2.2619951565061847,-0.008307318724290155,0.02591843700617589,-0.3451156978129566
1.236192310262693,2.2571711218753165,-0.006118758342471942,0.016029690218779195,-0.2184981389197594
1.2351067617702893,2.2545949816069033,-0.00332079376538643,0.006371529506559196,-0.09159494877544919
