x,y,v_x,v_y,omega
2.375,32.48,0.0,2.9743589743589745,-3.836734693877551
2.3741440650340757,31.89195769612179,-0.00855934965924444,2.9060640644230893,-3.5986403517971794
2.371699828707748,31.317305631824382,-0.01588301360402912,2.840456578550978,-3.382572895975941
2.367897390507969,30.75552329661587,-0.022141368393762687,2.777366773534142,-3.185883329170722
2.3629353207556454,30.20612265434513,-0.027479329129472336,2.716639649173282,-3.006299781824708
2.3569853342998304,29.668645364047734,-0.032020535428680705,2.6581332538006617,-2.8418663797672394
2.35019620264124,29.142660314688985,-0.0358707811572177,2.6017172397868213,-2.69089317303383
2.342697040764086,28.627761428367,-0.03912083761432466,2.54727162343305,-2.551914918285737
2.334600078255226,28.12356569467527,-0.041848787474279836,2.494685713484216,-2.4236569894779176
2.326003003303373,27.62971140533437,-0.044121962044246954,2.443857179924819,-2.305007058985234
2.316990951565274,27.145856563302804,-0.045998555336743456,2.3946912403908382,-2.194991473852894
2.3076381986658085,26.671677444673662,-0.04752897365791117,2.3470999459005966,-2.092755470504939
2.2980096045155007,26.20686729498267,-0.04875696784516548,2.301001551009334,-1.9975465416899973
2.288161849112292,25.75113514426536,-0.049720586186921,2.2563199561637517,-1.908700403145222
2.2781444926081256,25.304204727434037,-0.05045297885474659,2.212984212149484,-1.8256291129584699
2.2680008868279065,24.865813498397525,-0.05098307894744218,2.1709280782156344,-1.7478109803142938
2.25776896086681,24.43571172789371,-0.05133618066352204,2.130089626822494,-1.6747819670671766
2.2474818996568278,24.013661676305084,-0.05153443143630145,2.090410889063755,-1.6061283390864847
2.2371687313237794,23.59943683382693,-0.05159725189418086,2.05183753571784,-1.5414803673915567
2.2268548366242884,23.19282122129252,-0.051541695100729056,2.014318589626252,-1.4805069139253724
2.2165623916571877,22.793608745758647,-0.051382754570280964,1.9778061657124364,-1.4229107650955277
2.206310753304625,22.401602605640655,-0.05113362895534411,1.942255235467525,-1.3684245992637871
2.1961167954099294,22.01661474077799,-0.050805949991612975,1.9076234131591063,-1.3168074932271348
2.1859952024898632,21.638465323323956,-0.05040997920904635,1.8738707613812084,-1.267841888221273
2.175958726766062,21.266982285798814,-0.04995477802896915,1.8409596138702244,-1.2213309487390043
2.166018413449947,20.902000883034567,-0.04944835513217961,1.8088544137722637,-1.1770962580055513
2.1561837984994017,20.543363285080318,-0.04889779437327459,1.7775215657702286,-1.1349758027016186
2.1464630824611644,20.190918198436286,-0.048309366009098485,1.74692930067008,-1.0948222068024291
2.1368632835016528,19.844520513248234,-0.04768862358601739,1.7170475512104297,-1.0565011804723365
2.127390372295375,19.504030974326994,-0.047040488476758256,1.6878478380019521,-1.019890155034165
2.118049391071623,19.16931587406414,-0.04636932376075888,1.6593031646266088,-0.9848770792938525
2.1088445588062963,18.840246765498062,-0.045678998892512146,1.6313879210341673,-0.9513593560855306
2.0997793642778233,18.516700193947912,-0.04497294639221593,1.6040777944673288,-0.9192429009251285
2.090856648477045,18.198557445778285,-0.044254211615567605,1.5773496872289325,-0.8884413072162803
2.082078677664553,17.88570431298771,-0.043525496509351044,1.5511816406768322,-0.8588751046181891
2.073447208200409,17.578030872430475,-0.04278919813208987,1.5255527648955185,-0.8304710990249353
2.064963544126121,17.275431278585966,-0.04204744261079162,1.5004431735495731,-0.8031617841721495
2.056628588353779,16.97780356888365,-0.04130211511262807,1.4758339234735751,-0.77688481622358
2.0484512888921933,16.685050884547138,-0.040470879503228405,1.45169291989155,-0.7491416390488456
2.04043927532764,16.397079809318292,-0.039649256142305925,1.4280178323968924,-0.7226563136000008
2.032590548766258,16.113798809292142,-0.03883800947151253,1.4047921678646054,-0.6973570054430823
2.0249029703999155,15.835119574562103,-0.03803777419191501,1.3820001794357637,-0.6731767588793109
2.0173742859087986,15.560956874213346,-0.0372490707192534,1.359626824051826,-0.6500531130072686
2.0100021469511287,15.291228419521747,-0.036472318857443654,1.3376577228641446,-0.6279277520236479
2.002784130075184,15.0258547348061,-0.0357078499020031,1.316079124292345,-0.6067461863574986
1.9957177533491177,14.764759035424312,-0.03495591735866212,1.2948778695255425,-0.5864574616058039
1.9888004909693022,14.507867112443897,-0.03421670643949223,1.274041360278607,-0.5670138925666094
1.9820297860774585,14.255107223552823,-0.03349034247894444,1.253557528632127,-0.5483708199555377
1.9754030619900802,14.006409989809658,-0.03277689839483844,1.2334148087995385,-0.5304863876473154
1.9689177320201745,13.761708297861876,-0.03207640130421912,1.2136021106782635,-0.5133213385101757
1.9625712080506725,13.520937207288668,-0.031388838390800144,1.1941087950538063,-0.496838827101379
1.956360908000674,13.284033862749617,-0.030714162109185074,1.1749246503366975,-0.4810042476698105
1.9502842623096583,13.050937410643737,-0.030052294800973066,1.1560398707221056,-0.4657850760694396
1.9443387195506583,12.821588920004434,-0.029403132789026835,1.137445035670936,-0.4511507243277694
1.9385217512709114,12.595931307375398,-0.02876655000844126,1.1191310906194205,-0.4370724067383603
1.9328308561474712,12.373909265430292,-0.028142401225959728,1.1010893288316335,-0.42352301645790513
1.9272635635355133,12.155469195115515,-0.02753052489361993,1.0833113743161464,-0.4104770116877582
1.9218174364784348,11.94055914111048,-0.02693074567716549,1.0657891657341996,-0.39791031060866355
1.9164900742412039,11.72912873041382,-0.02634287669514324,1.0485149412324004,-0.3858001943169157
1.9112791144216357,11.521129113876771,-0.025766721500538676,1.0314812241380975,-0.37412521708137597
1.9061822346882602,11.316512910516934,-0.025202075833215782,1.0146808094602764,-0.362865123304604
1.9011971541881125,11.115234154456594,-0.024648729168261933,0.9981067511431241,-0.3520007706286641
1.8963261068632902,10.91741996036199,-0.024061744079961082,0.9800351898029261,-0.3757165322620985
1.8915687443886502,10.723208779552042,-0.02351188066643818,0.9620766182965375,-0.4011550734915821
1.8869177093883642,10.532578320291314,-0.022998469336421818,0.9442279743107411,-0.42820601511696627
1.8823657849895736,10.345506891379813,-0.02252077465148423,0.9264863148042594,-0.45676155391715345
1.877905907340292,10.161973378744364,-0.022078001841331487,0.908848811550245,-0.486716223626196
1.8735311768802276,9.98195722288176,-0.021669302759311455,0.8913127470758023,-0.5179666615491849
1.869234868472577,9.805438397075534,-0.02129378131719718,0.873875510986461,-0.5504113798620877
1.8650104404973815,9.63239738631028,-0.02095049843475749,0.8565345966660667,-0.5839505406494784
1.860851543000278,9.462815166809165,-0.020638476536275787,0.8392875983451076,-0.6184857337370037
1.856752024984351,9.296673186121343,-0.02035670362299507,0.8221322085330968,-0.6539197563712984
1.8527059409273088,9.133953343686702,-0.020104136947426056,0.8050662158133075,-0.6901563937887063
1.8487075566013131,8.974637971805276,-0.019879706312530353,0.7880875030009469,-0.7271001996952717
1.8447513542684646,8.818709816938302,-0.019682317015956137,0.7711940456687914,-0.7646562756536828
1.8408320373211955,8.66615202126668,-0.0195108524567347,0.7543839110474365,-0.8027300483376959
1.8369445344336104,8.516948104430867,-0.019364176419115822,0.7376552573106817,-0.8412270435705183
1.8330840032871487,8.371081945373778,-0.019241135045502032,0.7210063332602269,-0.8800526560100009
1.8292458339318276,8.228537764204969,-0.019140558507707968,0.7044354784278702,-0.9191119132795812
1.8254256518427576,8.089300104000401,-0.01906126238299211,0.6879411236178246,-0.9583092332688319
1.8216193207306133,7.953353812446949,-0.01900204873845246,0.6715217919166945,-0.9975481732403015
1.8178229451643269,7.820684023234861,-0.018961706924411587,0.6551761002041732,-1.0367311692789927
1.8140328730644553,7.691276137094071,-0.018939014074303033,0.6389027612037215,-1.075759264506191
1.810245698126498,7.565115802361749,-0.01893273530527003,0.6227005861195039,-1.114531824349205
1.8064582622349554,7.4421888949584165,-0.018941623610154765,0.6065684879138202,-1.1529462370116297
1.8026676579311656,7.322481497638201,-0.01896441942774222,0.5905054852883336,-1.1908975971237519
1.7988712310009942,7.205979878365092,-0.01899984987397266,0.5745107074427445,-1.228278370368446
1.795066583252368,7.092670467651178,-0.019046627612288904,0.5585833996964068,-1.2649780366733656
1.7912515755575122,6.982539834674341,-0.019103449336269486,0.542722930071949,-1.3008827093347237
1.7874243312406715,6.875574661971594,-0.019168993832138072,0.5269287969555346,-1.3358747271913507
1.7835832398992033,6.771761718479414,-0.01924191958254317,0.5112006379662604,-1.3698322167008568
1.779726961754342,6.671087830664021,-0.019320861866068177,0.49553824018768494,-1.402628620484808
1.7758544326378212,6.573539851451457,-0.019404429299141435,0.4799415519379603,-1.4341321886112177
1.7719648697320838,6.479104626629471,-0.01949119975823155,0.46441069628188114,-1.4642054285778798
1.7680577781952334,6.387768958349408,-0.01957971561027241,0.4489459865187502,-1.4927045096612834
1.764132958817409,6.2995195653060705,-0.019668478167970398,0.43354794391461293,-1.5194786170219654
1.7601905168732355,6.214343039115967,-0.019755941273766477,0.418217317986408,-1.5443692507369016
1.7562308723557125,6.132225796348429,-0.019840503901461432,0.40295510968896825,-1.5672094648057937
1.7522547718008181,6.053154025589194,-0.019920501647483713,0.3877625979033667,-1.5878230412142587
1.7482633019396716,5.977113628831255,-0.01999419696398268,0.37264136967603484,-1.606023594425881
1.7442579054470055,5.904090156392577,-0.02005976796267791,0.3575933547107408,-1.621613602352551
1.740240399091666,5.834068734454821,-0.020115295590717,0.34262086466683317,-1.634383361115952
1.7362129946379663,5.767033984201952,-0.02015874894627834,0.3277266378618569,-1.6441098630496422
1.7321783228973193,5.702969931415165,-0.020187968460191465,0.31291389000600617,-1.6505556008182454
1.7281394613895795,5.641859905254979,-0.020200646617209172,0.2981863715958407,-1.6534673058546485
1.7240999661456866,5.583686424841094,-0.02019430582171919,0.28354843254298956,-1.6525746374210006
1.7200639082715492,5.528431072139256,-0.020166272919655198,0.2690050944753956,-1.6475888507712904
1.7160359160037477,5.476074349604708,-0.020113649758358738,0.25456213087009527,-1.6382014910081923
1.7120212231300722,5.426595521050224,-0.020033278978397462,0.2402261546747415,-1.6240831860198952
1.7080257248370418,5.379972434360372,-0.01992170395190628,0.2260047122237892,-1.604882651337566
1.7040560423063558,5.336181325051623,-0.019775121354956158,0.2119063808637105,-1.5802260776543893
1.7001195977514458,5.295196600416752,-0.019589324194141725,0.19794086548499856,-1.549717156431971
1.6962247021274321,5.256990605298341,-0.01935963204599627,0.1841190856991049,-1.512938122364063
1.692380658567298,5.221533372718564,-0.019080803555344656,0.17045324009867738,-1.469452370006164
1.6885978858669974,5.188792366100316,-0.01874692344765996,0.1569568260837945,-1.4188094577269432
1.6848880683491716,5.158732225281938,-0.018351251730597,0.14364458209999553,-1.3605536726590277
1.6812643416541242,5.131314536797323,-0.017886015219878416,0.1305323027461573,-1.2942378239048589
1.6777415292203557,5.106497660969254,-0.017342109117805638,0.11763645553453492,-1.2194445729118328
1.6743364527031748,5.084236665149373,-0.016708656054003658,0.10497350266428418,-1.135818363233544
1.671068353395633,5.064483433956383,-0.01597233702141527,0.09255880926559965,-1.0431117001567634
1.6679594841212793,5.047187050844535,-0.015116355722121978,0.08040502185286272,-0.9412496521470661
1.66503596721987,5.032294561108362,-0.014118813291971352,0.06851987550885044,-0.8304148446908416
1.66232907279266,5.01975221027622,-0.012950130980125497,0.05690363281256129,-0.7111496607625956
1.6598771700193105,5.009507153265737,-0.011568896753370573,0.045546937292269205,-0.5844595235577379
1.6577287933938276,5.001509357947615,-0.009914869501458992,0.03443101588896132,-0.4518785443546095
1.6559477334428823,4.995712824961391,-0.007895730007993245,0.023534313973263,-0.3154310487727612
1.6546226756419857,4.992073876895645,-0.0053548480009715845,0.012855166684198012,-0.17740878773932103
1.6538924513578745,4.990539034213121,-0.001947394840140944,0.0024932601410523423,-0.039923014368056176
