x,y,v_x,v_y,omega
2.375,32.48,0.0,3.230769230769231,-4.6938775510204085
2.3737317420134607,31.810130547391356,-0.0120786474908518,3.14893984169403,-4.3657712225866545
2.3701306580923625,31.15705821370171,-0.022217389852938328,3.07079666963591,-4.072206950037167
2.3645726500791846,30.5200366826245,-0.030716019796376788,2.9960750549089528,-3.8084958281386676
2.3573759359836344,29.89837244260756,-0.03782411444695857,2.924536754776197,-3.5706996610950963
2.3488106239628643,29.29141960928714,-0.043750285750851006,2.855966419703989,-3.355494328909474
2.339106540439655,28.69857542432036,-0.04866955732733411,2.7901686752177355,-3.1600608958872227
2.3284596620867815,28.11927631687682,-0.0527292841286036,2.7269656813873837,-2.981998247714217
2.3170374246120886,27.552994437604248,-0.05605392991608919,2.666195073589506,-2.8192525672994506
2.304983122936189,26.999234592716977,-0.058748943187717124,2.607708211051175,-2.670060076535835
2.292419572620388,26.457531519532267,-0.06090391696276869,2.551368676422249,-2.5329002989125713
2.279452167818607,25.927447455393942,-0.06259517638752782,2.4970509820379947,-2.406457717495192
2.266171444091151,25.408569960255512,-0.06388790673110034,2.444639447851797,-2.289590170748656
2.25265523329687,24.90050995980647,-0.06483791035728793,2.394027223091496,-2.1813026850551043
2.2389704811158824,24.402899981324033,-0.06549306279497542,2.3451154291221785,-2.0807257162497796
2.2251747845322276,23.91539255871924,-0.06589452371602493,2.297812405209205,-1.9870969838324166
2.211317696058514,23.437658786744016,-0.06607774746219583,2.2520330421738697,-1.8997462458950456
2.197441833030175,22.96938700720379,-0.06607332899817643,2.207698191542585,-1.8180824914511589
2.1835838234889393,22.510281612405294,-0.06590771425169016,2.1647341398716637,-1.7415831281007554
2.169775114669307,22.060061953060313,-0.06560379831623757,2.1230721396043646,-1.6697848230819363
2.1560426656309333,21.618461339538484,-0.06518143062065426,2.082647989174948,-1.6022757194741688
2.142409541935366,21.18522612677578,-0.06465784267046105,2.043401656184135,-1.5386888002312902
2.1288954272838914,20.76011487434619,-0.06404801115310907,2.0052769383833775,-1.4786962135904778
2.1155170645852674,20.342897574229983,-0.06336496692902016,1.9682211579614401,-1.4220044063501718
2.102288636905651,19.933354939692066,-0.06262005859113837,1.9321848852568055,-1.3683499381800266
2.089222097086648,19.53127774944263,-0.06182317778031754,1.8971216885473414,-1.3174958718000969
2.076327453436215,19.136466241908753,-0.060982952223807944,1.8629879070134059,-1.2692286515468714
2.0636130177488496,18.7487295550159,-0.06010691146538583,1.8297424443470887,-1.223355397318476
2.051085620954252,18.3678852073754,-0.059201629435545064,1.7973465808005364,-1.1797015527827934
2.0387508008933812,17.993758617208655,-0.05827284733465016,1.7657638017398694,-1.138108836534088
2.026612966050133,17.62618265572036,-0.05732557974390679,1.7349596410058241,-1.0984334529892137
2.0146755385032686,17.2649972319684,-0.05636420641670643,1.7049015375842531,-1.0605445265380327
2.0029410788885325,16.91004890657432,-0.05539255181887525,1.6755587042641327,-1.02432272805668
1.9914113957600668,16.561190531879824,-0.05441395416651142,1.646902007112016,-0.9896590675600363
1.9800876414010655,16.218280916387105,-0.053431325443024674,1.6189038547234207,-0.9564538306755768
1.9689703958459368,15.881184511526875,-0.05244720365344005,1.5915380963263723,-0.9246156398979171
1.9580597406317475,15.549771118981777,-0.05146379838645655,1.5647799279126653,-0.8940606243403362
1.947355323588484,15.223915616956607,-0.05048303059700585,1.5386058056603888,-0.8647116840248473
1.9368564157999435,14.90349770393346,-0.049506567389096104,1.5129933659886037,-0.836497836718486
1.9265619617151148,14.58840165858107,-0.04853585246641354,1.4879213516532055,-0.8093536369899003
1.9164845100008738,14.27851792075279,-0.047439878145405914,1.4633523419494465,-0.7794591201583968
1.9066350324048833,13.973740954479837,-0.046364670387837106,1.4392854320786928,-0.7509762377376868
1.8970091374796576,13.67396725240895,-0.04531051937621759,1.415702206691659,-0.7238212485859573
1.8876023848215602,13.379097083164432,-0.044277601177089426,1.3925851194466257,-0.6979163222404965
1.8784103073644962,13.08903431425708,-0.04326599365209292,1.3699174415757729,-0.6731890557375046
1.8694284305423385,12.803686245413672,-0.04227569036845587,1.3476832140757409,-0.6495720351803054
1.860652288713605,12.522963451597022,-0.04130661276233983,1.3258672032257004,-0.6270024374358569
1.8520774391921737,12.246779635046117,-0.04035862077510084,1.3044548591638734,-0.6054216678645423
1.843699474184643,11.9750514857197,-0.03943152215376203,1.2834322772782065,-0.5847750304482718
1.8355140308973692,11.707698549575632,-0.03852508058217926,1.2627861621891108,-0.5650114270856563
1.8275168000435067,11.444643104162953,-0.03763902278793977,1.242503794122118,-0.5460830831778638
1.8197035329518672,11.185810041044075,-0.03677304475148377,1.2225729974862396,-0.5279452969411532
1.8120700474545348,10.931126754601575,-0.035926817127871456,1.2029821114899621,-0.5105562101574724
1.8046122327084517,10.680523036817785,-0.03509998997768242,1.1837199626413741,-0.49387659831766095
1.7973260530871944,10.433930977646273,-0.034292196891434805,1.1647758389920666,-0.47786967832678134
1.7902075512625473,10.191284870622493,-0.033503058581393526,1.1461394659963369,-0.46250093213145105
1.7832528505809253,9.952521123386738,-0.03273218600548347,1.1278009838679772,-0.44773794479780915
1.7764581568269442,9.7175781728163,-0.03197918308004954,1.109750926326686,-0.4335502557185801
1.7698197594552578,9.486396404485326,-0.031243649031251295,1.0919802006349741,-0.4199092217608801
1.7633340323619513,9.258918076191033,-0.030525180428809296,1.0744800688344784,-0.4067878912849606
1.7569974342581722,9.035087245303135,-0.029823372940515597,1.0572421300978947,-0.39416088806972777
1.7508065087010836,8.814849699710319,-0.029137822841281434,1.0402583041193876,-0.38200430427514187
1.7447578838305735,8.59815289215318,-0.028468128306433405,1.0235208154723974,-0.3702956016558127
1.73884827185428,8.384945877747302,-0.02781389051541085,1.0070221788692824,-0.35901352031542005
1.7330744683183275,8.175179254513488,-0.027174714588896275,0.9907551852622825,-0.34813799435902915
1.7274386640499775,7.96894549188902,-0.026499611776343978,0.9733758873516848,-0.36441346138718195
1.7219408699815233,7.766349297711997,-0.02586033173274324,0.9561116762390133,-0.3826260447662857
1.7165736051922265,7.567366841142018,-0.02525647578436774,0.9389593387131824,-0.4026632880015073
1.7113294812061475,7.3719749528761085,-0.024687562178291565,0.9219157876288027,-0.42441581142957346
1.7062012186199844,7.180151099228635,-0.024153033880403404,0.9049780566328571,-0.44777706788856436
1.7011816621607407,6.991873357274841,-0.023652265731441243,0.8881432953080508,-0.4726431062209699
1.6962637943031582,6.807120390972418,-0.023184571007440195,0.8714087647150163,-0.4989123416567155
1.6914407475675333,6.62587142817895,-0.022749207427081954,0.8547718333180304,-0.5264853321495901
1.6867058156099874,6.4481062384860195,-0.02234538264478318,0.8382299732813188,-0.5552645597608221
1.6820524632094673,6.273805111793312,-0.0219722592649337,0.8217807571254111,-0.5851542161975141
1.6774743352486552,6.1029488375479275,-0.021628959409467043,0.805421854735398,-0.6160599916212646
1.6729652647795328,5.935518684575598,-0.021314568867889936,0.7891510307153432,-0.6478888658435032
1.6685192802585254,5.771496381431504,-0.0210281408559898,0.7729661420855639,-0.6805489010187109
1.6641306120309476,5.610864097198707,-0.020768699406655794,0.7568651363220298,-0.7139490349345853
1.6597936981398242,5.453604422662217,-0.0205352424135666,0.7408460497397825,-0.7479988739790626
1.655503189530081,5.299700351785905,-0.020326744345893343,0.7249070062250804,-0.7826084848375687
1.6512539547155525,5.1491352634182554,-0.020142158649615483,0.7090462163239634,-0.8176881839395145
1.6470410839732474,5.001892903150932,-0.019980419848527307,0.6932619766981616,-0.8531483236303617
1.6428598931268248,4.857957365251533,-0.019840445355498098,0.677552669962783,-0.8888990739939675
1.638705926979286,4.717313074588414,-0.019721137002014433,0.6619167649240698,-0.9248501991886836
1.6345749624534722,4.5799447684612105,-0.019621382291451092,0.64635281723978,-0.9609108270890742
1.6304630114980896,4.445837478245437,-0.0195400553788589,0.6308594705294912,-0.996989210942264
1.6263663238166939,4.314976510753258,-0.019476017777291958,0.6154354579674445,-1.0329924816529028
1.6222813894773602,4.18734742920504,-0.0194281187877894,0.6000796043965214,-1.0688263892025291
1.618204941461703,4.06293603369749,-0.01939519564704065,0.5847908290087102,-1.1043950315866946
1.6141339582135008,3.9417283410438415,-0.019376073383457246,0.569568148645083,-1.1396005695154992
1.6100656662495134,3.82371056384952,-0.019369564368803,0.5544106817770325,-1.1743429249691875
1.6059975428981812,3.7088690886726816,-0.01937446754864686,0.5393176532404648,-1.208519461529262
1.6019273192358559,3.597190453102801,-0.01938956733064225,0.524288399806019,-1.2420246442165475
1.5978529832951198,3.488661321571623,-0.019413632104938783,0.5093223766813896,-1.274749676360567
1.5937727836256896,3.38326845968912,-0.019445412365824033,0.49441916505672123,-1.3065821107999342
1.5896852332954996,3.280998706871948,-0.019483638397891564,0.47957848082109356,-1.3374054324727316
1.585589114427949,3.1818389470029835,-0.019527017483541256,0.46480018459760797,-1.367098609202155
1.5814834833811378,3.0857760768272158,-0.019574230581328355,0.4500842932668521,-1.3955356072214946
1.5773676766863702,2.9927969717509413,-0.019623928416459175,0.43543099317385503,-1.4225848677226902
1.5732413178765219,2.9028884486672375,-0.019674726915429902,0.4208406552423653,-1.4481087404681432
1.569104325350247,2.8160372253802635,-0.01972520190623392,0.4063138522526225,-1.4719628702972514
1.5649569214357757,2.732229876143375,-0.019773882993492458,0.3918513785748718,-1.4939955322187863
1.5607996428385391,2.651452782760501,-0.01981924650400054,0.37745427269060233,-1.5140469107541459
1.5566333526804939,2.573692080625964,-0.01985970738214399,0.3631238428764027,-1.5319483193526076
1.5524592543662972,2.4989335989945545,-0.019893609895920046,0.3488616964703531,-1.5475213561367147
1.5482789075430476,2.4271627946806404,-0.019919216992170485,0.3346697731859632,-1.5605769930970412
1.5440942464569951,2.3583646782831877,-0.01993469811309111,0.3205503829802442,-1.5709145973479774
1.5399076010534913,2.2925237319237297,-0.01993811525361213,0.30650624901460743,-1.5783208854795074
1.5357217212170104,2.229623817369866,-0.019927406998586618,0.2925405562602829,-1.5825688158276199
1.5315398046083872,2.1696480733032857,-0.019900370226396517,0.2786570062785806,-1.5834164292653188
1.5273655286295207,2.1125788003882278,-0.019854639096142972,0.2648598786267372,-1.580605657796038
1.5232030871361837,2.0583973327200518,-0.01978766084039854,0.2511540991654302,-1.5738611331295003
1.5190572326341156,2.0070838942098135,-0.0196966677507265,0.23754531521778316,-1.562889046448606
1.5149333248429138,1.9586174385305348,-0.01957864454643333,0.22403997696583391,-1.5473761385071891
1.5108373867132456,1.9129754714775054,-0.019430290021834377,0.21064542353920207,-1.5269889400443253
1.5067761692624968,1.8701338550762863,-0.019247971413867596,0.1973699707581241,-1.5013734420395477
1.5027572269957652,1.830066593655598,-0.019027669221671206,0.18422299515320972,-1.4701554618125585
1.4987890062740905,1.7927456036096636,-0.018764909079993976,0.171215005284262,-1.4329420959755468
1.4948809498963573,1.7581404710307993,-0.018454675469845572,0.15835768594303057,-1.3893248305917423
1.4910436225667318,1.7262182052641215,-0.018091299098015146,0.1456638927872276,-1.338885133079589
1.4872888641405204,1.6969430023630352,-0.01766830496114364,0.13314756341358347,-1.2812037033608838
1.4836299810944271,1.67027604122622,-0.017178200239742817,0.12082349503226683,-1.2158750348449434
1.480081992394183,1.6461753477782466,-0.016612168334010493,0.10870691875797286,-1.142529530236029
1.4766619551902762,1.6245957795482617,-0.015959614560340528,0.09681277867044256,-1.0608660702693469
1.4733894107147087,1.605489203806524,-0.0152074756831601,0.08515460934610083,-0.9706984227680302
1.4702870147499358,1.5888049630020618,-0.014339152552773026,0.07374292212496497,-0.8720186332779187
1.4673814554277556,1.5744907296557962,-0.013332840991801518,0.06258310974421746,-0.7650783282473851
1.4647048231472413,1.5624938214118131,-0.012158895013094839,0.05167315924611107,-0.6504824905145874
1.462296703646845,1.5527629212311673,-0.01077557641925111,0.04100208056956641,-0.5292768708546809
1.4602074789209532,1.5452498341659435,-0.009121801922577432,0.03055112957542521,-0.40298873043247885
1.4585038876948313,1.5399102421552051,-0.007102876421439926,0.020302127669717326,-0.273557916766789
1.4572799978048323,1.5367008124420138,-0.004553217769025168,0.0102638695987643,-0.14309082693207223
1.4566892272081606,1.535562552567935,-0.0010731688659431733,0.0005767006305677155,-0.013435957247872249
