x,y,v_x,v_y,omega
2.375,32.48,0.0,3.8974358974358974,-7.755102040816326
2.3719425559691594,31.59800479585487,-0.02658646983339622,3.7720876168695714,-7.049628752439212
2.363395606174102,30.743967972792735,-0.047734832732318724,3.654319540192466,-6.4418649464115525
2.3504858081445694,29.916230552568592,-0.06452428056796637,3.5433971574087564,-5.914576556039404
2.334118306935422,29.113290763605587,-0.07780181690288064,3.438687964008683,-5.45409643485297
2.3150238102952136,28.333782798090265,-0.08823728431632165,3.3396421709071693,-5.049486414769769
2.293794663033903,27.57645946898269,-0.09636399621681666,3.245778082202164,-4.691919053182089
2.270912753726902,26.840177848768892,-0.10260912819188805,3.1566707892221713,-4.374215448742486
2.246771283094682,26.123887231631084,-0.1073167033926304,3.0719432728457177,-4.090495699832413
2.2216918704126885,25.426618936851945,-0.11076514601601108,2.9912592904511586,-3.835911797702509
2.1959380863749103,24.74747759327763,-0.11318080213858256,2.9143176101950465,-3.606441591559012
2.169726224124642,24.08563363091256,-0.1147484348202724,2.840847279936008,-3.3987284975215086
2.14323391994535,23.440316767864722,-0.11561942760835217,2.770603703088663,-3.2099558110003383
2.1166070884184314,22.81081032644921,-0.11591823784311585,2.7033653526983885,-3.0377474319209283
2.0899655282109393,22.19644624626527,-0.1157475030915975,2.638930996727174,-2.880088918166684
2.06340747340697,21.596600687828793,-0.11519210389943958,2.5771173375030707,-2.7352643041978535
2.037013304004922,21.010690140147986,-0.11432241264010694,2.51775699015613,-2.6018052331503507
2.0108485826027453,20.43816796105733,-0.11319690390055921,2.4606967410669487,-2.4784497704686763
1.9849665486083723,19.878521291288934,-0.11186426126790223,2.4057960395278006,-2.364108877271327
1.9594101738053658,19.331268292958622,-0.11036508484519894,2.352925685083619,-2.2578389795734344
1.934213861770397,18.7959556709554,-0.10873328067626908,2.301966680161774,-2.158819415834935
1.909404856999311,18.272156442072692,-0.10699719559404272,2.252809223166159,-2.066333809141617
1.8850044165501278,17.75946792192504,-0.10518054744233367,2.205351821596021,-1.9797546126715286
1.8610287867276427,17.25750990399414,-0.10330319014449238,2.159500508237899,-1.8985302332678677
1.8374900191909576,16.76592300872475,-0.10138174495711941,2.1151681462785077,-1.8221742591911898
1.8143966543877001,16.28436718358574,-0.0994301228972914,2.0722738114520127,-1.7502564127993483
1.791754295044076,15.81252033753275,-0.09745995835161608,2.0307422411826974,-1.6823949232260824
1.7695660882892195,15.350077095443591,-0.0954809699514822,1.9905033422012701,-1.6182500727732871
1.7478331316500406,14.896747659913228,-0.09350126169355112,1.9514917493671216,-1.5575187172315748
1.7265548154513524,14.452256769346778,-0.091527574816781,1.9136464294715558,-1.4999296173864174
1.7057291119649136,14.01634274262064,-0.08956549897833876,1.8769103246687662,-1.4452394486086113
1.6853528198676184,13.588756601728637,-0.08761964969379346,1.8412300309138658,-1.3932293792489892
1.6654217711128099,13.169261264821884,-0.0856938177393237,1.8065555074057296,-1.3437021277803112
1.6459310061258168,12.75763080291119,-0.08379109519105173,1.7728398135568222,-1.2964794242034934
1.6268749222547254,12.353649754249407,-0.08191398194887274,1.740038870458687,-1.2513998139018474
1.60824739959981,11.957112491064422,-0.0800644759199576,1.70811124419337,-1.2083167524668519
1.59004190767772,11.567822633885324,-0.07824414948952119,1.6770179486683443,-1.167096948489756
1.5722515958236376,11.185592509206035,-0.07645421445901865,1.6467222659341705,-1.1276189182769039
1.5548693697753446,10.81024264667207,-0.07469557726527036,1.6171895821872577,-1.089771722190412
1.5378879565006782,10.441601312365414,-0.07296888599269613,1.5883872378706239,-1.0534538570687824
1.521299959010626,10.079504075106435,-0.07127457044254269,1.5602843904683281,-1.0185722831274642
1.5050979026331812,9.723793402996513,-0.06961287631784646,1.5328518887483755,-0.985041567024473
1.489274273999139,9.374318287695456,-0.06798389441295609,1.5060621573477648,-0.9527831255195403
1.4738215538027832,9.030933894168257,-0.06638758555535208,1.4798890907148436,-0.9217245564528219
1.4587575178749965,8.693504476288236,-0.0646040312080111,1.4542797604157722,-0.8853469924589344
1.444097824082042,8.361899587266223,-0.06287156699159348,1.4292410136886888,-0.8508132874437035
1.429830854259376,8.035990572532615,-0.06118904016202231,1.404750418777474,-0.8180062620695815
1.4159452612610326,7.715653805630403,-0.05955524678009453,1.3807866847200272,-0.7868175992379443
1.4024299790149164,7.400770434189013,-0.05796894666439439,1.3573295886833707,-0.7571470681975662
1.3892742294129237,7.0912261419768186,-0.05642887596163164,1.3343599088139615,-0.7289018255820261
1.3764675265437354,6.786910925819772,-0.05493375768348299,1.3118593621168793,-0.7019957848770967
1.3639996787017585,6.487718886279797,-0.053482310507620485,1.2898105469263843,-0.6763490468521458
1.3518607885422238,6.193548031082294,-0.05207325609703011,1.268196889573659,-0.6518873843858376
1.3400412516982725,5.904300090368274,-0.05070532515471959,1.2470025948960646,-0.6285417758954958
1.328531754129543,5.619880342924574,-0.049377262399451304,1.2262126002665263,-0.6062479822579356
1.3173232684321505,5.340197452615914,-0.04808783062135207,1.2058125328522538,-0.584946162701427
1.3064070493060516,5.0651633143063854,-0.046835813953421915,1.1857886698393145,-0.5645805256656484
1.2957746283467275,4.794692908615701,-0.04562002047548343,1.1661279013840329,-0.5450990110792215
1.2854178083032426,4.528704164908017,-0.0444392842504721,1.146817696074079,-0.5264530009013397
1.2753286569233835,4.267117831958792,-0.043292466878737564,1.1278460687017757,-0.5085970551225775
1.2654995004882865,4.0098573557885615,-0.04217845864384526,1.109201550169805,-0.49148867072653707
1.255922917123257,3.7568487641920143,-0.04109617931293214,1.0908731593653926,-0.47508806138404025
1.2465917299580118,3.5080205575268586,-0.040044578645721925,1.0728503768533675,-0.4593579558897943
1.2374990001980117,3.263303605359809,-0.03902263665862601,1.0551231202514069,-0.44426341356192317
1.228638020158637,3.0226310485972157,-0.03802936368376144,1.0376817211624536,-0.4297716550109413
1.2200023063054437,2.7859382067553007,-0.03706380025704981,1.0205169035498403,-0.4158519068496933
1.2115855923364438,2.553162490050294,-0.03612501686468748,1.0036197634502149,-0.40247525906211024
1.2033818223361001,2.3242433160117955,-0.035212113573084514,0.9869817499280223,-0.38961453387860595
1.195393050839804,2.099230180938182,-0.03425546465557621,0.969654207233835,-0.3962650001845002
1.1876195178990099,1.8781876176784174,-0.033340473960025756,0.9524550385032633,-0.4053246597664319
1.1800516736550455,1.661086544934367,-0.03246686729183907,0.9353803766623834,-0.41666059555618046
1.1726800444011647,1.447898752245333,-0.031634256654950926,0.918426516285735,-0.4301443069651814
1.1654952574933213,1.2385968637064195,-0.03084215123933895,0.901589905791764,-0.4456513888853095
1.1584880638399968,1.0331543034140296,-0.030089967485221462,0.8848671402290083,-0.463061224474228
1.15164935817525,0.8315452625064275,-0.02937703829518442,0.8682549546197091,-0.4822566903534896
1.144970197303458,0.6337446676745735,-0.028702621459527868,0.8517502178312025,-0.5031238729145766
1.1384418164898318,0.43972815102485896,-0.028065907354613603,0.8353499269489274,-0.5255517944853579
1.132055644157629,0.24947202118098488,-0.02746602596888779,0.8190512021282189,-0.5494321481574654
1.1258033150409592,0.06295323551713494,-0.026902053306502513,0.802851281905259,-0.5746590401142028
1.119676681931098,-0.11985062658129664,-0.02637301721403009,0.7867475189506827,-0.601128738329048
1.1136678261442485,-0.29896138952965146,-0.025877902671616757,0.7707373762524101,-0.6287394265267514
1.1077690668296198,-0.4744003065261708,-0.025415656586023662,0.7548184237173303,-0.6573909623125206
1.1019729692285052,-0.6461880837998848,-0.02498519211932083,0.7389883351845443,-0.6869846383797918
1.0962723519876805,-0.8143449042184017,-0.02458539258350193,0.72324488584601,-0.7174229457034862
1.090660293623864,-0.9788904503491622,-0.024215114927944564,0.7075859500736733,-0.7486093376132111
1.0851301382301568,-1.1398439270680214,-0.023873192843422073,0.6920094996555533,-0.7804479936192765
1.0796755005102896,-1.2972240838097946,-0.023558439503248922,0.6765136024468289,-0.812843581833223
1.0742902702221215,-1.451049236557445,-0.023269649959083018,0.6610964214458036,-0.8457010187832873
1.0689686161081504,-1.6013372896692175,-0.023005603205883733,0.6457562143087602,-0.8789252253732196
1.063704989387811,-1.7481057576467833,-0.02276506392750294,0.6304913333222363,-0.9124208776693865
1.0584941268840447,-1.8913717869523055,-0.022546783931334715,0.6153002258562218,-0.9460921511252882
1.053331053855048,-2.0311521779884103,-0.022349503277332722,0.6001814353272975,-0.9798424567635484
1.048211086601254,-2.167463407362341,-0.02217195110348539,0.5851336027068991,-1.0135741677320451
1.0431298349175082,-2.3003216505645696,-0.022012846146477222,0.570155468616817,-1.0471883345320254
1.038083204461101,-2.429742805202622,-0.021870896952716292,0.5552458760618717,-1.0805843870806051
1.0330673991078594,-2.555742514943475,-0.02174480177112441,0.5404037738585796,-1.113659821616829
1.0280789233709535,-2.678336194332516,-0.02163324811501447,0.5256282208287334,-1.146309870288334
1.0231145849604915,-2.797539054674232,-0.02153491197595908,0.5109183908383577,-1.1784271510636928
1.0181714975664684,-2.913366131179849,-0.021448456667718923,0.49627357877570266,-1.2099012954031139
1.0132470839532888,-3.025832311610415,-0.02137253127297298,0.48169320757705747,-1.2406185508873062
1.0083390794610325,-3.1349523666708237,-0.021305768659689656,0.46717683642650076,-1.2704613557518698
1.0034455360170171,-3.240740982441565,-0.021246783027399862,0.45272417027557454,-1.2993078820048383
0.9985648267711955,-3.3432127951711905,-0.021194166936266797,0.4383350708516171,-1.3270315435224076
0.9936956514807154,-3.4423824287943177,-0.021146487763559884,0.4240095693494826,-1.3535004652300064
0.9888370427827868,-3.5382645355880697,-0.02110228352277544,0.4097478810309693,-1.3785769091949243
0.9839883735111159,-3.6308738404354557,-0.021060057970015526,0.39555042198979207,-1.4021166532017029
0.9791493652299017,-3.7202251892277047,-0.021018274910107142,0.3814178283775955,-1.4239683171812394
0.9743200981811215,-3.8063336020103904,-0.020975351601024567,0.367350978428358,-1.443972632762109
0.9695010228660084,-3.8892143315610426,-0.020929651139089574,0.35335101766429167,-1.461961651271687
0.964692973510817,-3.9688829281796814,-0.02087947368866127,0.3394193877151688,-1.477757885828762
0.9598971837008634,-4.045355311578739,-0.02082304639789034,0.32555785923315533,-1.491173383875184
0.9551153045063114,-4.118647850875405,-0.02075851181560539,0.3117685694335288,-1.502008727791104
0.9503494254694298,-4.188777453816016,-0.020683914592060586,0.2980540648326397,-1.5100519634168879
0.9456020988776639,-4.255761666496369,-0.020597186205904713,0.28441734977915034,-1.5150774597877317
0.9408763678120706,-4.319618784978346,-0.020496127407949025,0.27086194136845604,-1.516844708790527
0.9361757985397177,-4.380367980331805,-0.020378388003815962,0.25739193127032495,-1.5150970816751563
0.9315045179163282,-4.438029438735676,-0.020241443503918516,0.24401205485030275,-1.509560571705893
0.9268672565891347,-4.4926245183255915,-0.020082568036894958,0.23072776767069617,-1.4999425706391865
0.9222693989509905,-4.544175924434839,-0.019898802729576604,0.21754532893147374,-1.4859307539611268
0.9177170410134177,-4.592707904672309,-0.019686918466707982,0.2044718905247932,-1.4671921899947247
0.9132170576675385,-4.638246464809846,-0.01944337149745938,0.1915155889320528,-1.4433728470277412
0.9087771812350465,-4.680819605550006,-0.01916424965464438,0.17868563489543807,-1.414097759073477
0.9044060938540304,-4.720457578667876,-0.01884520583245182,0.16599239221648968,-1.37897223692744
0.9001135372243356,-4.757193158402217,-0.01848137355619839,0.15344743156040566,-1.337584693694343
0.895910444765754,-4.791061919780873,-0.018067256518423922,0.14106353694966275,-1.2895119152796406
0.8918091036700646,-4.8221025090604925,-0.017596579096265746,0.12885463069920475,-1.2343279735057755
0.88782335823409,-4.850356881668134,-0.017062076868731957,0.11683556588895973,-1.1716184788126736
0.8839688721968761,-4.875870468834641,-0.016455193020083796,0.1050217138198151,-1.101002509174125
0.8802634781143885,-4.898692214618947,-0.015765625088503467,0.09342824952194845,-1.0221652774597387
0.8767276585557688,-4.918874400643816,-0.014980631942971888,0.0820690202595246,-0.9349051918410006
0.873385230967469,-4.9364721508334455,-0.014083955781374866,0.0709548944328997,-0.839198831899247
0.8702643515246264,-4.95154249613141,-0.01305412633029936,0.06009158641898138,-0.7352851918144894
0.8673990236375704,-4.964142911611866,-0.011861768339754011,0.049477243845851164,-0.6237639037835246
0.8648314170930962,-4.974329379974797,-0.010465245090455383,0.03910074191879603,-0.5056877557636933
0.8626155460352596,-4.982154398477334,-0.008803198890732469,0.02894289723369934,-0.3826062120263812
0.8608235059676459,-4.987666133773438,-0.0067797582189516245,0.01898523577591782,-0.2564912551304531
0.8595579592552436,-4.990911848730796,-0.004224995801938965,0.00923837254894784,-0.12947165600783864
0.8589902707419343,-4.991958190949852,-0.0007114260529241484,-0.00013974455715159984,-0.003381384708954077
