x,y,v_x,v_y,omega
2.375,32.48,0.0,2.3076923076923075,-3.836734693877551
2.374367426966997,32.02297308130623,-0.0063257303300267706,2.2625768792453456,-3.6454040834631876
2.37254490510391,31.574829985878136,-0.011899488300845678,2.218854075035626,-3.4678999213881476
2.3696744744648055,31.135299438260787,-0.016804818090201377,2.1764514011378595,-3.3028965347085584
2.3658824749564547,30.704124133696347,-0.021115176993307457,2.135301644506516,-3.1492206456178464
2.3612814286143027,30.281059734076837,-0.024895286428209935,2.095342351688596,-3.0058312309108723
2.3559716717783474,29.86587396146384,-0.02820228193134331,2.0565153744413722,-2.871802382157923
2.350042774050494,29.458345776855193,-0.031086695347190874,2.018766471645101,-2.7463086682377873
2.343574774882671,29.058264633803386,-0.033593296331039385,1.98204495887298,-2.628612593461954
2.336639263706184,28.665429798062018,-0.03576181543383243,1.9463033985407003,-2.5180538175903617
2.3293003254481337,28.279649725727943,-0.03762756714666933,1.9114973248000517,-2.4140398626865474
2.3216153699193764,27.90074149341432,-0.03922198814090455,1.8775849983361537,-2.316038079096492
2.3136358607663707,27.528530274877703,-0.0405731033891484,1.844527187030023,-2.2235686812425124
2.305407957350387,27.16284885926484,-0.04170593077068996,1.8122869690985925,-2.136198695238288
2.2969730809675712,26.803537206769512,-0.04264283305747049,1.780829555854698,-2.053536685980557
2.288368415184819,26.45044203801759,-0.04340382477004723,1.750122131664516,-1.9752281524728015
2.2796273486848997,26.103416453947283,-0.044006840229149434,1.7201337090385622,-1.9009514975639703
2.2707798678458126,25.762319583334467,-0.044467968161719724,1.690834997089602,-1.8304144927352484
2.2618529052882,25.427016255441664,-0.044801657414403555,1.6621982818384335,-1.763351170592344
2.2528706497814364,25.09737669555224,-0.04502089765323446,1.6341973170558048,-1.699519087761279
2.243854822179873,24.773276241396353,-0.04513737836240142,1.606807224503072,-1.638696909296941
2.234824921445772,24.454595078687888,-0.04516162897860754,1.5800044025815465,-1.5806822727819643
2.225798444288379,24.141217994177183,-0.04510314259532242,1.5537664425255175,-1.5252898962508594
2.216791081495775,23.83303414478658,-0.04497048533071455,1.52807205138052,-1.4723498991095412
2.207816893646303,23.529936841538564,-0.04477139316400927,1.502900981099639,-1.421706309487745
2.198888468549996,23.231823347111696,-0.044512857799062985,1.4782339631690167,-1.3732157350877883
2.190025467174147,22.938597357859997,-0.04411715595942493,1.4540259293479523,-1.3240332969757407
2.181244988504365,22.650166016857796,-0.0436876307383935,1.430287480674092,-1.277093607555646
2.1725533669691197,22.366437081732432,-0.04322858461406017,1.4070018705795293,-1.2322678631182176
2.163956119422364,22.087321582664146,-0.04274389085349529,1.3841531201033388,-1.1894360583599082
2.155458026712265,21.812733673321212,-0.04223703624749725,1.361725973325989,-1.1484862896787182
2.1470632071507807,21.542590490397153,-0.0417111593673473,1.3397058559146169,-1.1093141210421957
2.138775182729619,21.27681202115336,-0.041169084844266915,1.318078836523305,-1.0718220061507078
2.130596938833959,21.015320978419346,-0.04061335411233419,1.2968315908168573,-1.0359187613140743
2.12253097812239,20.75804268254683,-0.04004625300335703,1.275951367908275,-1.001519084070496
2.114579369168397,20.50490494985405,-0.03946983653657087,1.2554259590195145,-0.9685431131144547
2.106743790394127,20.255837987132857,-0.03888595120612948,1.2352436681924492,-0.9369160255744077
2.099025569770072,20.01077429182436,-0.038296255034419566,1.215393284892499,-0.9065676680998015
2.0914257207037705,19.76964855749898,-0.03770223562859584,1.1958640583613347,-0.8774322185872396
2.0839449744958274,19.532397584304086,-0.03710522645083601,1.176645673587615,-0.8494478757036041
2.0765838097018268,19.29896019406772,-0.03650642148917035,1.1577282287760091,-0.8225565736548246
2.069342478703417,19.069277149769626,-0.035906888494927444,1.1391022142049445,-0.7967037199073425
2.0622210317604743,18.843291079111857,-0.03530758093449622,1.1207584923727287,-0.7718379537990843
2.0552193387883326,18.620946401940586,-0.03470934878692095,1.10268827934002,-0.7479109241813695
2.0483371090791858,18.402189261288164,-0.03411294830455143,1.0848831271841612,-0.7248770844156163
2.0415739091645975,18.186967457820977,-0.033519050841329064,1.06733490748774,-0.7026935032115829
2.0349291789962547,17.97523038749321,-0.03292825084209909,1.0500357957899427,-0.6813196899394639
2.0284022466044025,17.766928982220723,-0.03234107307642158,1.0329782569349277,-0.6607174331784431
2.021992341377605,17.562015653401573,-0.03175797919155602,1.0161550312565872,-0.6408506513810271
2.0156986060933013,17.360444238121538,-0.031179373651481306,0.9995591215437496,-0.6216852546371816
2.009520107815966,17.162169947893744,-0.030605609121868403,0.9831837807341604,-0.6031890166163012
2.003460013745171,16.96733717066198,-0.02999533158608475,0.9651439915834908,-0.6225888781118589
1.99751867809395,16.776100980826875,-0.029418024926123186,0.9472179067675642,-0.6437593925252804
1.9916895548900702,16.588438946279265,-0.028873207112675815,0.9294024387085413,-0.6665862213616373
1.985966202315186,16.4043292400691,-0.0283603186361654,0.9116946233931268,-0.6909576386175086
1.9803422974927365,16.223750616142652,-0.02787872958833019,0.8940916158713512,-0.7167642829282618
1.974811649918724,16.046682385938276,-0.027427746151794982,0.8765906861724142,-0.7438989153414634
1.9693682136497375,15.873104395758435,-0.02700661653807016,0.8591892156259946,-0.7722561817207071
1.9640060983548535,15.702997004837822,-0.02661453641077014,0.8418846935801464,-0.8017323787932008
1.9587195793310375,15.536341064028843,-0.02625065382739035,0.8246747145096375,-0.8322252228563619
1.9535031065753283,15.373117895026741,-0.02591407372970006,0.807556975511388,-0.8636336201533044
1.9483513130013914,15.213309270056946,-0.025603862009670415,0.7905292741865577,-0.8958574379142533
1.9432590218829406,15.056897391947103,-0.02531904917483618,0.7735895069118552,-0.9287972750403114
1.938221253602051,14.903864874505334,-0.025058633634060475,0.7567356675058406,-0.9623542313772644
1.9332332317764642,14.754194723124808,-0.024821584621807887,0.7399658462994063,-0.9964296744898189
1.928290388836663,14.607870315532537,-0.024606844776206272,0.723278229623307,-1.0309250028002763
1.9233883711207058,14.464875382597246,-0.024413332383364295,0.7066710997296204,-1.0657414038995798
1.9185230435526113,14.32519398910744,-0.024239943297581973,0.6901428351684208,-1.1007796067722266
1.9136904939684314,14.188810514426017,-0.024085552544215405,0.6736919116458162,-1.1359396265989632
1.9088870371531095,14.055709632921943,-0.02394901560900297,0.6573169033949113,-1.1711205007116507
1.9041092186507498,13.925876294072719,-0.02382916941459459,0.6410164850973189,-1.20622001417232
1.8993538184111092,13.799295702123022,-0.023724832981811543,0.6247894343996486,-1.2411344133323143
1.894617854335952,13.675953295175347,-0.023634807769761443,0.6086346350770919,-1.2757581055966603
1.889898585790446,13.555834723577146,-0.02355787768529745,0.5925510809049225,-1.3099833434725667
1.8851935171470768,13.43892582745579,-0.023492808748393563,0.5765378803086185,-1.3436998908185551
1.880500401432662,13.325212613237472,-0.02343834839575442,0.5605942618745562,-1.3767946690317747
1.8758172441530538,13.214681228968413,-0.023393224400327196,0.5447195808160369,-1.4091513807156002
1.8711423073750946,13.107317938236406,-0.023356143379266055,0.5289133265040166,-1.440650108158427
1.8664741141514445,13.003109092467149,-0.023325788857237347,0.5131751311885573,-1.4711668837295293
1.8618114533811552,12.902041101342693,-0.023300818845656254,0.4975047800559859,-1.5005732290623892
1.8571533852074484,12.804100401058264,-0.023279862891408404,0.48190222278830436,-1.5287356596558812
1.8524992470642365,12.709273420097851,-0.02326151854071042,0.4663675868158279,-1.555515151288326
1.8478486604946802,12.61754654216811,-0.02324434715485512,0.4509011924815844,-1.5807665644228808
1.8432015388787453,12.528906065883262,-0.023226869004492758,0.4355035703668787,-1.604338022606183
1.838558096222536,12.443338160740407,-0.023207557557598738,0.42017548106167524,-1.6260702407568777
1.8339188571804672,12.360828818864146,-0.023184832863089616,0.40491793770092166,-1.6457957992522267
1.8292846685024777,12.281363801931242,-0.023157053916804653,0.3897322316281052,-1.6633383599155438
1.82465671212292,12.204928582609522,-0.023122509878772284,0.37461996158908406,-1.678511820480076
1.820036520136079,12.131508279760563,-0.0230794099896377,0.35958306690051467,-1.6911194049933331
1.8154259919362303,12.061087586563062,-0.02302587200884991,0.34462386507449866,-1.7009526891268314
1.810827413838721,11.993650690614746,-0.022959908966242497,0.32974509440864974,-1.7077905617526468
1.806243481544115,11.929181184967934,-0.022879413979815716,0.314949962059467,-1.7113981278463803
1.8016773258618821,11.867661968952753,-0.022782142842514348,0.3002421980923385,-1.7115255633599515
1.7971325421761868,11.809075137551371,-0.02266569401443995,0.285626115921486,-1.7079069410168293
1.7926132242181287,11.753401858020851,-0.0225274855661389,0.2711066793837017,-1.7002590582256911
1.7881240028124634,11.700622232444562,-0.02236472849051401,0.2566895763791731,-1.6882803162266997
1.7836700904019183,11.65071514495833,-0.022174395614939498,0.2423812984831617,-1.6716497256825862
1.7792573323336098,11.603658092603286,-0.02195318506814389,0.22818922506726477,-1.6500261518017734
1.774892266143337,11.559426999186982,-0.021697476834583163,0.21412170909577066,-1.6230479668743418
1.7705821904323993,11.517996012314534,-0.021403280274795204,0.20018815962870318,-1.5903333570978884
1.7663352454588561,11.479337285071018,-0.02106616946063503,0.1863991128064587,-1.5514816439298225
1.7621605083592262,11.443420745969554,-0.020681201535664683,0.17276627820819596,-1.5060761417190593
1.758068107137468,11.41021386411834,-0.02024281068191939,0.15930254030395646,-1.4536893008771203
1.7540693594657593,11.37968142164106,-0.019744666035166964,0.14602188446885137,-1.3938912002902075
1.7501769453578486,11.351785312898024,-0.019179475043940627,0.13293920296152525,-1.3262628734810953
1.746405127580458,11.326484400776618,-0.018538702729963434,0.12006991825254607,-1.2504164845731949
1.7427700413455347,11.303734474857649,-0.017812159619269633,0.1074293409371436,-1.1660249683982797
1.73929008707908,11.283488374368122,-0.016987383045279074,0.09503166395810217,-1.0728642484173692
1.7359864795255084,11.265696357793558,-0.016048692490435473,0.08288850178752415,-0.9708711141025514
1.7328840372008543,11.250306812411932,-0.014975730756105966,0.07100695202876085,-0.8602183331494742
1.730012345005933,11.237267380839587,-0.013741191193107802,0.05938736369470357,-0.7414038547201045
1.7274075033771248,11.226526497849896,-0.01230722509497424,0.04802146620221306,-0.6153405489298964
1.7251148279392536,11.218035109316741,-0.010619529283736022,0.0368924191293333,-0.48341510394417986
1.7231932216341979,11.211747869248754,-0.008596533766822283,0.02597998155052532,-0.34746294193720095
1.7217230988550605,11.207622082560754,-0.006104694024551249,0.015277885329476843,-0.2095944218356946
1.7208251565769181,11.205609267276959,-0.002874728756872488,0.00485026750846646,-0.07183056180104327
