x,y,v_x,v_y,omega
2.375,32.48,0.0,3.6923076923076925,-5.183673469387755
2.3735368012480578,31.75154199182269,-0.014631987519423732,3.5922723894653488,-4.7917323493681545
2.369400109127825,31.042601596342987,-0.026734933682901283,3.497131565331696,-4.4446187534898725
2.3630535594871938,30.352237738014313,-0.036730562723410215,3.4065070179550534,-4.135754889617817
2.354884053969892,29.679580934189644,-0.04496449244961276,3.32006102029165,-3.8596977659512506
2.345215474297998,29.023825776253645,-0.05172130426932447,3.2374905590683443,-3.6119172234232004
2.3343197097347907,28.384224457695574,-0.057236341362746496,3.1585226265123736,-3.388622273753982
2.3224255744056768,27.760081162171822,-0.061705011928393484,3.082910328725116,-3.1866241790779224
2.309726055905601,27.150747165655947,-0.06529017307236334,3.010429636433639,-3.0032277312927005
2.2963842359579836,26.555616537253876,-0.0681280264038132,2.94087664758708,-2.83614435419749
2.2825381481874296,25.974122346234083,-0.07033285130172552,2.874065262610869,-2.683422221706232
2.2683047806092116,25.405733300379982,-0.07200082448045417,2.8098251959301246,-2.5433897371404184
2.2537833864636494,24.84995075436815,-0.07321311697516862,2.748000264188179,-2.4146095719775618
2.2390582331154203,24.30630603753396,-0.07403841650712137,2.688446904153728,-2.295841100612579
2.2242008924126475,23.774358058836313,-0.07453499052060812,2.6310328828227423,-2.186009549001155
2.2092721553337835,23.253691153603206,-0.07475238026802981,2.575636169508366,-2.0841805408985703
2.194323637588612,22.743913142116607,-0.07473279718368789,2.522143945357608,-1.9895390055012212
2.1793991300707027,22.24465357456542,-0.07451227799540146,2.470451730154261,-1.901371626186723
2.164535737919037,21.755562140573645,-0.07412164352126005,2.4204626097635003,-1.819052177498714
2.149764843856366,21.27630722456086,-0.07358729710544665,2.372086550364331,-1.742029228170813
2.135112924987976,20.806574590738123,-0.07293189157845624,2.3252397878630737,-1.669815790487221
2.1206022470257215,20.34606618368131,-0.07217488804408445,2.2798442827050533,-1.6019805771223392
2.1062514556847476,19.894499032231476,-0.07133302536565632,2.2358272317932792,-1.5381405906834333
2.092076081578823,19.45160424600702,-0.07042071569359122,2.1931206304512907,-1.4779548222161458
2.078088972154344,19.017126095123345,-0.06945037855119833,2.151660878385432,-1.4211188757626054
2.064300661926649,18.590821164839735,-0.06843272372575365,2.111388424450683,-1.3673603688683786
2.0507196904159386,18.17245757782108,-0.06737699138134949,2.0722474457358553,-1.3164349854034836
2.037352875644967,17.761814277539123,-0.06629115632836403,2.0341855570837004,-1.268123078503347
2.024205549794031,17.358680367063826,-0.0651821021809957,1.9971535476692783,-1.2222267388694932
2.011281762560569,16.96285449812772,-0.0640557701536273,1.9611051416918335,-1.1785672578977902
1.9985844569007023,16.57414430589811,-0.06291728644503893,1.9259967806042442,-1.1369829267548692
1.9861156211059985,16.192365885375654,-0.06177107150199783,1.8917874246203135,-1.0973271220996028
1.9738764205645034,15.8173433057624,-0.0606209339129531,1.8584383715122195,-1.0594666370422552
1.9618673120495622,15.448908159516648,-0.05947015123646008,1.825913090945306,-1.0232802224648017
1.9500881429559214,15.086899143142038,-0.058321539699947696,1.7941770728007915,-0.9886573092445268
1.938538237546089,14.731161667050593,-0.05717751439837642,1.7631976881136535,-0.9554968864322226
1.9272164719694698,14.381547492098544,-0.056040141367817126,1.732944061406846,-0.9237065141996199
1.9161213395630083,14.037914390624117,-0.0549111826967955,1.7033869533374209,-0.8932014535202837
1.9052510077272369,13.700125830021594,-0.053792135660920296,1.674498652687817,-0.8639038971913792
1.8946033674893679,13.368050677068926,-0.05268426671776822,1.6462528768388855,-0.8357422890277523
1.8841760767101634,13.04156292138983,-0.05158864107427715,1.6186246799520856,-0.8086507199359562
1.873966597759341,12.720541416577781,-0.050506148433947795,1.5915903681684012,-0.78256839116256
1.8639722303716812,12.404869637640711,-0.04943752544264767,1.5651274212023067,-0.7574391363562221
1.854190140299715,12.094435453543305,-0.04838337527701664,1.5392144197717563,-0.7332109952260815
1.8446173842963995,11.789130913730055,-0.04734418475613722,1.513830978360733,-0.7098358325526185
1.8352509318904464,11.488852047607956,-0.046320339303394124,1.4889576828602618,-0.6872689971382357
1.8260978489832587,11.193500058382071,-0.04521048976848296,1.4645622093985864,-0.6626205853200898
1.8171640912254952,10.902979674816244,-0.04412708780915128,1.4406416262596842,-0.6390940554755502
1.808444406153542,10.617197608442616,-0.043069762910382295,1.417179037476576,-0.6166251014552929
1.7999336197778282,10.336063873105637,-0.042038100846755015,1.3941583158932165,-0.5951538020991093
1.7916266445059699,10.059491635594515,-0.04103165187182803,1.3715640592180134,-0.5746242747284431
1.7835184855385307,9.787397074766393,-0.0400499378025629,1.3493815490632226,-0.5549843596706167
1.7756042459441155,9.519699248586594,-0.039092458141589986,1.3275967127347694,-0.5361853327155595
1.7678791305938266,9.256319968557303,-0.038158695361299746,1.3061960875581438,-0.5181816427466545
1.7603384491119463,8.997183681046987,-0.037248119457503365,1.2851667875449988,-0.5009306720872706
1.7529776179795582,8.74221735507027,-0.03636019186637713,1.264496472222178,-0.4843925173689573
1.7457921619102934,8.49135037610202,-0.03549436882627066,1.2441733174603211,-0.4685297889606783
1.738777714602121,8.244514445540673,-0.03465010425545196,1.2241859881531274,-0.45330742720480116
1.7319300189558005,8.001643485464264,-0.03382685220775427,1.204523612610952,-0.43869253388821694
1.7252449268390064,7.762673548348786,-0.03302406896018638,1.1851757585438087,-0.4246542175388892
1.7187183984650174,7.527542731442487,-0.03224121477970301,1.166132410519196,-0.4111634512818601
1.7123465014460109,7.296191095511613,-0.0314777554103631,1.1473839487895343,-0.3981929421164896
1.7061254095732836,7.068560587693408,-0.030733163316909274,1.1289211293925294,-0.3857170105903933
1.700051401369965,6.844594968210604,-0.03000691871627706,1.1107350654355155,-0.37371147994684506
1.6941208584558776,6.624239740718863,-0.029298510424598002,1.0928172094818933,-0.3621535739127867
1.6883302637590358,6.407442086074255,-0.028607436543818962,1.0751593369642,-0.35102182237531093
1.6826761996037485,6.194150799322415,-0.027933205009054694,1.0577535305542132,-0.34029597426667135
1.6771553457013266,5.98431622972441,-0.027275334015164715,1.0405921654258403,-0.32995691704250096
1.6717644770659352,5.777890223646683,-0.026633352338748965,1.0236678953514453,-0.31998660219584557
1.6665004618750854,5.574826070153865,-0.02600679956974729,1.0069736395767281,-0.3103679763015938
1.661360259291604,5.375078449153854,-0.025395226265068266,0.9905025704233826,-0.30108491713256935
1.6563461950233251,5.178778626168846,-0.024745416417720347,0.9724956594266948,-0.3270938506980409
1.6514579682004915,4.986069105418238,-0.024136851810614205,0.9545995480793914,-0.3547455414507403
1.646687422041517,4.796928024856559,-0.02356860977913123,0.936811257537401,-0.38393185821545156
1.6420265893909014,4.611334106649878,-0.023039716727025587,0.9191279245293956,-0.41454711508163417
1.6374677023447135,4.429266634483248,-0.022549153734853097,0.9015467971369148,-0.44648783574963413
1.6330032008047892,4.250705431673364,-0.022095861664390395,0.8840652309619224,-0.4796525231158283
1.6286257400589257,4.075630840010081,-0.02167874579424264,0.8666806856708985,-0.5139414331411674
1.6243281974776487,3.9040236992522814,-0.021296680018528726,0.8493907219071059,-0.549256352054838
1.6201036784120562,3.7358653272050475,-0.020948510637395664,0.8321929985652318,-0.5855003759449873
1.6159455213718044,3.5711375003060013,-0.020633059765122915,0.8150852704252304,-0.622577691781471
1.6118473025574214,3.409822434648987,-0.020349128378707722,0.7980653861449007,-0.6603933589011658
1.6078028398168456,3.2519027673731387,-0.02009549902704924,0.7811312866135764,-0.6988530899641794
1.603806196092326,3.0973615383445505,-0.01987093821814735,0.7642810036723091,-0.7378630303589068
1.5998516824206035,2.946182172056403,-0.019674198499076485,0.7475126592091466,-0.7773295349947844
1.59593386054661,2.798348459671331,-0.019504020240859413,0.7308244646415828,-0.8171589413732038
1.5920475452087515,2.6538445411269684,-0.019359133137723812,0.7142147208020553,-0.8572573377686433
1.5881878061522245,2.5126548872221086,-0.019238257427547565,0.697681818246538,-0.8975303252828583
1.584349969925714,2.374764281596363,-0.01914010483755632,0.6812242380109107,-0.9378827724540126
1.5805296215163087,2.240157802510776,-0.019063379256497252,0.6648405528449507,-0.9782185610089158
1.5767226058775048,2.108820804330321,-0.019006777131540618,0.6485294289595924,-1.0184403212389077
1.572925029405849,1.9807388986013983,-0.018968987585017485,0.6322896283296484,-1.0584491553571842
1.5691332614230729,1.8558979346082722,-0.01894869224274575,0.6161200116015976,-1.0981443470561707
1.56534393572259,1.7342839792816633,-0.018944564762080403,0.6000195416644875,-1.137423055326564
1.5615539522419923,1.6158832963200531,-0.018955270043896025,0.5839872879516206,-1.176179990423536
1.5577604789267618,1.5006823243697198,-0.01897946310841123,0.56802243155171,-1.21430706966905
1.5539609538549175,1.388667654092469,-0.01901578761003065,0.5521242712208082,-1.2516930505612411
1.550153087697801,1.2798260039303067,-0.019062873961136054,0.5362922304008034,-1.288223138421656
1.5463348665987953,1.1741441943535342,-0.019119337028919804,0.5205258653669158,-1.3237785655488843
1.5425045555596206,1.0716091203522673,-0.0191837733628253,0.5048248746457499,-1.358236138563718
1.5386607024330552,0.9722077219009506,-0.01925475790282967,0.4891891098674114,-1.3914677503291566
1.5348021426317175,0.8759269520901718,-0.01933084011054624,0.47361858824037656,-1.4233398525133936
1.5309280046750842,0.782753742579473,-0.019410539455788873,0.4581135068665977,-1.4537128845440772
1.52703771671144,0.6926749659780995,-0.01949234018065059,0.4426742591471458,-1.4824406543916222
1.5231310141682657,0.6056773947067988,-0.01957468525109279,0.42730145356587307,-1.509369666339886
1.5192079487039307,0.5217476558321756,-0.01965596939225814,0.4119959351803683,-1.5343383906870536
1.5152688986559166,0.4408721812945515,-0.01973453108788251,0.39675881019590603,-1.5571764702173458
1.5113145812065416,0.36303715287007776,-0.01980864340586535,0.38159147404879906,-1.5777038583679355
1.5073460665168854,0.28822844111724066,-0.01987650349069752,0.3664956434795731,-1.5957298843921963
1.5033647941139896,0.21643153745611698,-0.019936220538260135,0.3514733931316536,-1.611052241646437
1.4993725918563252,0.14763147841654245,-0.01998580203838399,0.336527197264103,-1.623455896630773
1.4953716978491007,0.08181276096902934,-0.020023138033862287,0.3216599772110559,-1.6327119189282204
1.491364785735827,0.0189592477233802,-0.020045983098873305,0.30687515524546893,-1.638576236194001
1.4873549938578206,-0.040945939350557126,-0.020051935681191582,0.29217671549390184,-1.6407883245558987
1.4833459588521847,-0.09792053814752677,-0.020038414375167398,0.2775692724757772,-1.6390698542274358
1.4793418543559982,-0.15198328016145268,-0.020002630586696088,0.26305814766349933,-1.6331233243150864
1.4753474356071417,-0.2031540403392711,-0.019941556901869432,0.2486494541146917,-1.6226307419211352
1.4713680908916995,-0.25145400461232725,-0.019851890252553833,0.234350188615846,-1.607252431924639
1.4674099010021036,-0.29690585644863177,-0.019730008643403334,0.2201683297471706,-1.5866261099630203
1.463479708168035,-0.3395339832837223,-0.01957191969728285,0.20611293860372704,-1.560366418965624
1.4595851963507342,-0.37936470276896017,-0.019373198475725866,0.19219425624867503,-1.5280652289534749
1.4557349854284174,-0.41642650717727037,-0.019128910747442947,0.17842378783446106,-1.4892931446978674
1.451938742774427,-0.4507503216611326,-0.018833515792459836,0.16481435700416833,-1.4436028755530268
1.448207317254203,-0.48236976783501007,-0.01848073940978335,0.15138010473461674,-1.3905354217803136
1.4445529030975588,-0.5113214176150294,-0.0180634021566581,0.13813639306559336,-1.3296304522816325
1.4409892450292272,-0.5376450124333942,-0.017573178526655513,0.12509955511803128,-1.2604428180284166
1.4375319024366267,-0.561383608778705,-0.017000247399352266,0.11228640833507234,-1.1825678679781944
1.4341986008071204,-0.5825835917201658,-0.016332768895708977,0.09971342107953415,-1.0956790353880022
1.4310097157272352,-0.6012944743285757,-0.015556081903141677,0.08739540500454945,-0.9995817642553164
1.427988962440622,-0.6175683775449912,-0.014651450962993544,0.07534362715957077,-0.8942875178559964
1.425164408778172,-0.6314590766418746,-0.01359408566150367,0.06356336380924789,-0.7801087612944654
1.422570002672848,-0.6430205410995384,-0.012349975391736339,0.05205128076739034,-0.6577675775784042
1.4202479339457588,-0.6523050519034044,-0.010870711879155124,0.04079382727127788,-0.5284933178541545
1.418252419041771,-0.6593613707274244,-0.009084437160725873,0.02976936096892522,-0.3940575573324989
1.416656257186622,-0.6642342824601286,-0.00687718139076455,0.018959756358107586,-0.2566678780868791
1.4155645790977824,-0.6669690406533633,-0.004039599497629048,0.008387825574220112,-0.11864201779178887
