x,y,v_x,v_y,omega
2.375,32.48,0.0,3.0256410256410255,-5.183673469387755
2.3739508810808037,31.911584333121358,-0.011043357044170673,2.957681783607804,-4.871557268064074
2.370950260288438,31.355832275694592,-0.020542124980731345,2.892339873516067,-4.587399815032393
2.3662720165433413,30.81226223542193,-0.028702546020285852,2.8294500240908826,-4.327933471317632
2.360153688853981,30.280422620882153,-0.03570090334140477,2.7688617079067885,-4.090344571597159
2.3528017107910437,29.75988921003703,-0.041688339426355046,2.7104373536207937,-3.8722012233808134
2.3443958111221628,29.25026283168024,-0.04679481498291914,2.6540508396086038,-3.67139401218183
2.335092727751149,28.751167311522277,-0.05113237839616998,2.5995862146857376,-3.4860870472816172
2.3250293533529676,28.262247643769,-0.05479787842679573,2.5469366037697987,-3.31467734568819
2.314325408559878,27.783168356190952,-0.05787522465835512,2.4960032654728113,-3.1557609793007124
2.30308572075081,27.313612042295823,-0.06043727859499267,2.4466947755285626,-3.008104737728831
2.2914021723302946,26.853278038672308,-0.06254744162095945,2.3989263152452733,-2.87062231215621
2.2793553710385073,26.401881229140365,-0.0642609930294342,2.3526190482488616,-2.7423542025319674
2.2670160856943777,25.959150960221418,-0.06562622111929632,2.307699571950582,-2.6224507047255754
2.2544464833706566,25.524830054783713,-0.06668538228829383,2.2640994326568498,-2.510157456074463
2.2417011979733266,25.098673912637125,-0.06747551663097237,2.2217546952019824,-2.404803114440373
2.2288282552691827,24.680449688435907,-0.06802914341264567,2.1806055595476437,-2.305788823079866
2.215869875357456,24.269935538564454,-0.06837485565816341,2.140596018046643,-2.2125791755830257
2.202863170243362,23.866919929782256,-0.06853782975335397,2.101673548081744,-2.1246944450971954
2.18984075140864,23.471201003331146,-0.0685402632437187,2.0637888356141745,-2.041703882535431
2.1768312599793056,23.08258598899193,-0.06840175180190342,2.0268955258512364,-1.9632199214142996
2.1638598301784193,22.70089066424522,-0.06813961452321461,1.9909499977983474,-1.8888931538869431
2.1509484951529263,22.32593885426182,-0.06776917521882037,1.9559111599216643,-1.8184079646223077
2.138116542923125,21.95756196893876,-0.06730400614750959,1.921740264531607,-1.7514787273661945
2.12538082907617,21.595598573620393,-0.06675613960990856,1.888400738819624,-1.6878464840460166
2.1127560518746824,21.2398939905111,-0.06613625198469926,1.8558580307518746,-1.627276038739298
2.1002549946482283,20.890299928105613,-0.06545382408323826,1.8240794682532573,-1.5695534091882213
2.087888739654705,20.54667413624204,-0.06471728111174302,1.7930341303106654,-1.514483587188116
2.0756668570204377,20.208880084627346,-0.06393411503844088,1.762692728791369,-1.4618885664124404
2.06359757187552,19.876786662900173,-0.06311099175016653,1.7330274999157391,-1.4116056023080514
2.0516879123808978,19.550267900485714,-0.06225384503532717,1.7040121044469938,-1.3634856738034185
2.039943840984538,19.229202704665344,-0.06136795913688173,1.6756215357674145,-1.3173921208828392
2.0283703709362944,18.91347461543264,-0.060458041370944945,1.6478320351031381,-1.2731994357257306
2.0169716698268987,18.602971575840016,-0.05952828609637853,1.6206210132403085,-1.2307921882016846
2.005751151689241,18.29758571665833,-0.0585824311421278,1.5939669781458468,-1.1900640691397815
1.9947115590042714,17.997213154277528,-0.05762380764702194,1.567849467967849,-1.1509170370293513
1.983855035784783,17.70175380087082,-0.05665538413706558,1.542248988944872,-1.1132605557208926
1.9731831927640933,17.411111185929947,-0.05567980555440641,1.5171469578011694,-1.0770109123315308
1.962697165589986,17.125192288355354,-0.054699427857248295,1.4925256482471585,-1.042090605962013
1.9524059598787247,16.843909696473887,-0.0536290533139252,1.4683437399787957,-1.00579993920878
1.9423170471406757,16.567179006362927,-0.0525700281392216,1.4446108927681414,-0.9711060839729407
1.9324281779245847,16.294916372009546,-0.05152333203015668,1.4213115741095965,-0.9379203480746682
1.9227369315571412,16.027040833502284,-0.05048978762714225,1.3984309364931462,-0.9061598974396887
1.913240744272514,15.763474190506177,-0.049470078526831766,1.3759547792553362,-0.8757473074777471
1.9039369341100065,15.504140882745315,-0.04846476528903345,1.3538695129642795,-0.846610153410644
1.8948227229390753,15.248967877030196,-0.047474299668139555,1.3321621261422392,-0.8186806357764794
1.8858952559297908,14.997884560402742,-0.04649903727169674,1.3108201541467563,-0.7918952377395532
1.8771516187506552,14.750822639004337,-0.045539248824466826,1.2898316500469744,-0.7661944111912757
1.8685888527437942,14.507716042302011,-0.04459513019512359,1.2691851573459327,-0.7415222889423397
1.8602039682994593,14.268500832334972,-0.0436668113241887,1.2488696844123608,-0.7178264205854136
1.8519939566269819,14.03311511766858,-0.042754364175574856,1.2288746804970199,-0.6950575298551657
1.843955800097414,13.80149897176555,-0.041857809819874074,1.2091900132190663,-0.6731692915323526
1.836086481313747,13.57359435550509,-0.04097712474504152,1.1898059474173575,-0.6521181261343437
1.8283829910474485,13.349345043599772,-0.040112246479155726,1.1707131252701883,-0.6318630108087099
1.820842335164901,13.128696554677607,-0.03926307860028934,1.1519025475947278,-0.6123653050019087
1.8134615406538706,12.911596084812881,-0.03842949520003261,1.1333655562444997,-0.5935885896138516
1.8062376608481931,12.697992444304333,-0.03761134485972899,1.1150938175296945,-0.5754985184731851
1.7991677799382901,12.487835997512871,-0.03680845419188203,1.0970793065909659,-0.5580626810791282
1.7922490168456915,12.281078605583772,-0.03602063099336554,1.0793142926627213,-0.5412504756551852
1.7854785285313897,12.077673571889967,-0.03524766705191963,1.061791325166804,-0.5250329916492747
1.7788535128003855,11.877575590043836,-0.03448934064286064,1.0445032205819351,-0.5093829008949372
1.772371210658168,11.680740694334908,-0.03374541874890083,1.027443050038369,-0.4942743567203152
1.7660289082689444,11.487126212460122,-0.03301565903240139,1.01060412759097,-0.47968290035640887
1.7598239385601757,11.296690720421882,-0.03229981158621419,0.9939799991273398,-0.46558537405449896
1.7537596506121642,11.109598278325194,-0.031534798392855154,0.975414128206233,-0.4948058306611382
1.7478364054278317,10.926022980485406,-0.030815150915909303,0.956957428002077,-0.525522378388594
1.7420457043002968,10.745944355099603,-0.0301395977949837,0.9386070497432103,-0.5576257077194522
1.7363792931699038,10.569342460914598,-0.02950683515651953,0.9203602574673742,-0.5910085883232253
1.7308291683945933,10.396197866131775,-0.02891553089938182,0.9022144244570849,-0.6255656290701999
1.7253875817461268,10.226491627952115,-0.028364328558161483,0.8841670300656459,-0.6611930416554868
1.7200470447097662,10.060205272687721,-0.027851850771948614,0.8662156569279774,-0.697788406822071
1.7148003321600094,9.897320776367003,-0.027376702383386166,0.8483579885532475,-0.7352504421658798
1.7096404854805396,9.737820545761021,-0.026937473189978495,0.8305918072991891,-0.7734787704922446
1.7045608151926377,9.581687399758152,-0.026532740366885483,0.8129149927310232,-0.8123736876713057
1.6995549031528967,9.42890455101345,-0.026161070577755498,0.7953255203711244,-0.8518359289095028
1.694616604378196,9.279455587797536,-0.025821021787514203,0.7778214608490045,-0.8917664323148277
1.6897400485534837,9.133324455967713,-0.0255111447884057,0.7604009794649045,-0.9320660985843963
1.68491964127603,8.990495440981036,-0.02522998444795086,0.7430623361843385,-0.9726355455834509
1.6801500650884167,8.850953149865411,-0.024976080684817038,0.7258038860853886,-1.0133748565143528
1.675426280351653,8.714682493060177,-0.024747969175853743,0.7086240802854838,-1.0541833202915876
1.6707435260094496,8.581668666031966,-0.024544181794708263,0.6915214673798961,-1.0949591626433157
1.6660973202949036,8.45189713056499,-0.024363246779459127,0.6744946954303555,-1.1355992663504983
1.6614834614316174,8.325353595616939,-0.024203688623555625,0.6575425145491341,-1.1759988789099827
1.656898028382686,8.202023997622248,-0.02406402768098699,0.6406637801318102,-1.2160513057669797
1.652337381703059,8.081894480113647,-0.023942779472979035,0.6238574568008491,-1.2556475871039403
1.6477981645535662,7.964951372519998,-0.023838453679577928,0.6071226231323018,-1.294676155995848
1.643277303938465,7.851181167983725,-0.02374955279517303,0.5904584772495198,-1.3330224755454738
1.638772012232808,7.740570500023821,-0.02367457042226881,0.5738643433810436,-1.3705686523956162
1.6342797890712983,7.633106117850598,-0.023611989172566936,0.5573396794949945,-1.4071930237787278
1.6297984236767395,7.5287748601153055,-0.02356027813858105,0.5408840861396712,-1.4427697150084888
1.6253259977137882,7.427563626851242,-0.02351788989248343,0.5244973166399322,-1.477168164045015
1.6208608887626537,7.329459349332389,-0.023483256961565904,0.5081792888216732,-1.510252609479706
1.6164017745177661,7.23444895754038,-0.0234547877214594,0.4919300984626379,-1.541881537994466
1.6119476378285276,7.142519344890189,-0.023430861638947947,0.475750034697278,-1.571907087064685
1.6074977727131903,7.05365732981846,-0.02340982378565389,0.45963959763672607,-1.600174398413832
1.6030517914930282,6.967849613785244,-0.023389978531842732,0.4435995185023944,-1.6265209175167004
1.5986096332124997,6.88508273517925,-0.023369582315824394,0.4276307826133355,-1.6507756343283362
1.594171573532483,6.805343018547742,-0.02334683536856098,0.4117346556130775,-1.6727582604453173
1.5897382363082766,6.728616518494306,-0.023319872254664427,0.3959127133704619,-1.692278338171329
1.5853106070924956,6.654888957500354,-0.023286751069345,0.3801668760395593,-1.7091342775847782
1.5808900488359177,6.584145656829339,-0.023245441105159706,0.36449944681323143,-1.7231123188735367
1.576478320097653,6.516371459566965,-0.02319380877131193,0.348913155948584,-1.7339854191727724
1.5720775961209434,6.4515506447379565,-0.02312960150984281,0.33341121067254625,-1.7415120662951764
1.5676904931840903,6.389666831324011,-0.023050429404400285,0.31799735157952064,-1.7454350266272123
1.563320096699858,6.330702870895351,-0.022953744113833878,0.3026759160905879,-1.7454800418746785
1.558969993614681,6.274640727471446,-0.022836814677502183,0.2874519094241817,-1.7413545004275928
1.5546443097563685,6.221461343164194,-0.02269669962052649,0.27233108328375105,-1.7327461255491914
1.5503477529038046,6.171144488159793,-0.022530214616987967,0.25732002202570925,-1.7193217468017334
1.5460856625170205,6.12366859371194,-0.022333894717580637,0.24242623532012667,-1.700726256618819
1.5418640672909807,6.079010567122943,-0.022103949767050005,0.22765825509039433,-1.6765819058034135
1.5376897520137098,6.0371455882953775,-0.021836211046325715,0.2130257325681995,-1.646488167278175
1.5335703356711776,5.998046888516438,-0.021526066243487855,0.19853952826274138,-1.610022507023286
1.529514363432896,5.961685513946719,-0.02116837836999991,0.18421178299744304,-1.5667425592773694
1.5255314162133133,5.928030079198251,-0.020757381836135128,0.1700559511969373,-1.516190429223498
1.5216322431645894,5.897046520932236,-0.02028654499253788,0.15608676739270744,-1.457900165082221
1.5178289250938264,5.868697868298142,-0.01974838206812626,0.1423201024398575,-1.3914098796860226
1.5141350810298293,5.842944057150206,-0.019134187026579645,0.12877264648579476,-1.3162805783709068
1.5105661369925585,5.819741829193568,-0.0184336449446933,0.11546133200513117,-1.232124449282835
1.507139687044606,5.799044775888831,-0.017634249244278293,0.10240238699208563,-1.1386460773346792
1.503875994447696,5.780803608599054,-0.016720409670566004,0.08960990026870139,-1.0357003980811346
1.5007987091278592,5.764966754870109,-0.01567206738034686,0.07709382319389528,-0.9233703586884141
1.4979359229489821,5.751481379302412,-0.014462523976254695,0.06485749857133066,-0.8020634704053036
1.4953217581327132,5.7402948700988965,-0.01305500040552341,0.05289522988672579,-0.6726168864887166
1.4929988156587317,5.731356651892131,-0.011397025636385918,0.041191277552920735,-0.5363823366500402
1.4910220987979448,5.724619769491344,-0.009410520266633986,0.029723274034321304,-0.3952362541210427
1.4894658863428853,5.720040802681151,-0.0069706634708333465,0.018476376599307398,-0.25143941956270555
1.4884386838680255,5.71757420054568,-0.0038419941592707633,0.007487856405658109,-0.10728024533395136
