x,y,v_x,v_y,omega
2.375,32.48,0.0,3.3846153846153846,-2.36734693877551
2.3743170680387524,31.778525029422486,-0.006504113916642694,3.296098620884719,-2.1947673913099712
2.3723833431311996,31.095207402531706,-0.01191231377433876,3.211688301884603,-2.0411868633280497
2.369410297435921,30.429215716953244,-0.01640240713307501,3.131089656005515,-1.9039194698659259
2.365575333927718,29.779777516970324,-0.020121054849810964,3.054036058117541,-1.7807249465730357
2.3610277015860404,29.14617373919934,-0.02318972935664151,2.980285634939455,-1.6697251740281844
2.355893289525642,28.52773381835422,-0.025709433123341882,2.9096183731092853,-1.5693379876730575
2.3502785311481875,27.923831356959397,-0.027764456185750054,2.841833640174772,-1.4782243699575943
2.344273597907855,27.333880279731233,-0.02942538419837071,2.7767480477125193,-1.395246073454699
2.3379550231261894,26.757331406708325,-0.030751518484157397,2.7141936001246894,-1.3194314267223193
2.3313878663044076,26.193669389913367,-0.03179283219947889,2.654016083636796,-1.2499475981243449
2.3246275052694796,25.64240996698654,-0.03259155860935996,2.5960736585234425,-1.1860779855923087
2.317721125569789,25.103097492295102,-0.03318348614959671,2.540235624252187,-1.1272036971895838
2.3107089625618706,24.575302711834922,-0.033599018687723525,2.486381332511447,-1.0727883132800247
2.30362534067403,24.05862075305419,-0.03386404691075413,2.434399227305035,-1.0223652941673629
2.2964995456996915,23.552669304744157,-0.034000667130567694,2.3841859946952786,-0.9755275304455745
2.289356559137571,23.05708696550958,-0.03402777631819969,2.3356458075387803,-0.9319186366829536
2.2822176781581174,22.571531742171977,-0.033961566343265207,2.288689652819333,-0.8912256696400135
2.275101040430935,22.09567968186626,-0.03381593582037367,2.2432347310446277,-0.8531730153545068
2.2680220695618343,21.629223623641327,-0.033602834361537555,2.1992039187166545,-0.8175172391407829
2.260993854079637,21.17187205712804,-0.03333255118319935,2.1565252861717976,-0.7840427318858689
2.2540274706414656,20.72334807734279,-0.033013957751768054,2.115131664163885,-0.7525580172912145
2.2471322602813326,20.283388425991227,-0.03265471234473406,2.0749602534701035,-0.7228926096719318
2.240316065024626,19.85174261075743,-0.03226143295723261,2.0359522725660346,-0.694894331940194
2.233585430962979,19.42817209503601,-0.03183984382036214,1.9980526390665232,-0.668427019512608
2.226945782876686,19.012449551409787,-0.031394899858618805,1.9612096811832516,-0.6433685489045783
2.220401574662919,18.604358172913557,-0.030930892653444807,1.925374875923712,-0.619609140340446
2.213956419143793,18.203691036769477,-0.03045154086204348,1.8905026111627454,-0.5970498923116685
2.207613200261901,17.810250515845286,-0.02996006753692483,1.856549969067636,-0.5756015130457679
2.201374170200654,17.42384773358392,-0.029459266379714598,1.8234765286596806,-0.5551832196134929
2.1952410335751757,17.044302058591217,-0.02895155862483796,1.7912441855565202,-0.5357217801441679
2.1892150205126493,16.671440635455316,-0.02843904197065563,1.7598169871663456,-0.517150678533319
2.183296950167378,16.30509794871359,-0.02792353274621404,1.729160981802466,-0.49940938426711656
2.1774872859862713,15.94511541718665,-0.02740660231194487,1.6992440803588817,-0.4824427126790075
2.1717861838473254,15.591341016168474,-0.02688960853515672,1.6700359293380123,-0.4662002631948696
2.166193534030868,15.243628925201854,-0.02637372305015476,1.6415077941536027,-0.4506359249946344
2.1607089978457266,14.901839199382223,-0.02585995490357288,1.6136324517476293,-0.43570744108577314
2.1553320396159634,14.565837462324222,-0.025349171094170085,1.5863840916619087,-0.4213760231002739
2.1500619546348956,14.235494619096254,-0.024842114439808712,1.5597382247949358,-0.4076060102349001
2.1448978936090106,13.910686587581637,-0.024339419140049848,1.5336715991538108,-0.3943645666898745
2.139838884042693,13.591294046862448,-0.023841624348688865,1.508162121981322,-0.3816214127525639
2.1348838489534656,13.277202201345858,-0.02334918602490313,1.4831887877004788,-0.36934858534401466
2.1300381919447218,12.968300957262716,-0.02279992834408784,1.4587278226151459,-0.35574316175468074
2.1253066174171247,12.664484290553542,-0.022262686204456938,1.4347642412817567,-0.3427778510223094
2.1206866049712687,12.365649655829877,-0.021737432327504854,1.411279898943621,-0.3304148212561552
2.1161756441902373,12.071698228901464,-0.02122409892041329,1.388257500374596,-0.3186189004125649
2.111771242483363,11.782534733600684,-0.02072258400219812,1.365680550109033,-0.3073573597389518
2.1074709316887255,11.498067278695395,-0.020232756899109736,1.3435333061318055,-0.2965997171893902
2.1032722735975065,11.218207204192801,-0.019754463017261116,1.3218007367500406,-0.2863175587588888
2.0991728645421674,10.942868936392724,-0.01928752798596812,1.300468480393549,-0.2764843759156325
2.0951703391720935,10.671969851099458,-0.018831761252832643,1.2795228081137402,-0.2670754175140998
2.0912623735244535,10.405430144447529,-0.01838695920088003,1.2589505885713108,-0.2580675547507694
2.087446687484235,10.143172710838787,-0.01795290784882384,1.238739255321453,-0.2494391578813999
2.0837210467154144,9.885123027526724,-0.01752938518755906,1.2188767762219872,-0.2411699835573927
2.0800832641348155,9.631209045418906,-0.017116163199096597,1.1993516248048508,-0.23324107176095452
2.0765312009911003,9.381361085700576,-0.0167130095981934,1.1801527534649605,-0.22563465142673195
2.073062767603454,9.135511741911813,-0.01631968933177176,1.1612695683327685,-0.21833405393309718
2.0696759238076092,8.893595787137535,-0.015935965866746973,1.1426919057079687,-0.21132363373087054
2.066368679150836,8.655550085994296,-0.015561602292998583,1.1244100099419156,-0.20458869545231853
2.0631390928722624,8.42131351112052,-0.015196362264845944,1.1064145126654923,-0.1981154269099299
2.059985273700301,8.190826863897556,-0.014840010801453423,1.0886964132675037,-0.19189083745376265
2.056905379494925,7.9640327991481605,-0.014492314964035247,1.071247060536257,-0.18590270120895278
2.053897616759023,7.7408757535765425,-0.014153044425502916,1.0540581353839036,-0.1801395047620495
2.0509602400399887,7.521301877730394,-0.013821971946255765,1.0371216345794128,-0.17459039890686373
2.0480915512399793,7.305258971280267,-0.013498873768119464,1.020429855421802,-0.169245154098073
2.045289898850946,7.092696421425476,-0.013183529936955722,1.0039753812904937,-0.16409411929442963
2.042553677128433,6.883565144248454,-0.012875724563170973,0.9877510680144711,-0.15912818390351924
2.0398837979487565,6.677954563201013,-0.012551696195652665,0.9704449419611517,-0.18022588795333713
2.037279108507164,6.475966514185014,-0.012254869914753008,0.9532507629531338,-0.20311174966732348
2.0347339053486384,6.2775778116313745,-0.011985160166443184,0.9361654518434325,-0.22768051777196063
2.0322425127075467,6.082765904285502,-0.011742388796331237,0.9191860466886848,-0.2538296612842538
2.029799301101107,5.891508851093128,-0.011526293169764975,0.9023096980005866,-0.2814591476678727
2.0273987042858783,5.703785298044046,-0.011336533641933596,0.8855336643716321,-0.31047122726721493
2.025035234708944,5.519574455896681,-0.01117270042410641,0.8688553084604345,-0.3407702231796838
2.0227034975761464,5.338856078709306,-0.01103431988825479,0.8522720933241024,-0.3722623257424945
2.0203982036512707,5.16161044310611,-0.010920860348657795,0.8357815790873018,-0.40485539082071015
2.018114180892317,4.987818328208263,-0.010831737355664322,0.819381419939795,-0.43845874108791355
2.0158463850239494,4.81746099616166,-0.010766318533547911,0.8030693614564165,-0.47298296948983715
2.0135899091388385,4.650520173193993,-0.01072392799131865,0.7868432382356665,-0.5083397440742279
2.0113399924148454,4.486978031134431,-0.010703850332424833,0.7707009718553856,-0.5444416133569779
2.0090920280298623,4.326817169329246,-0.010705334286460588,0.7546405691463626,-0.5812018113748038
2.0068415703515408,4.170020596886218,-0.010727595983270277,0.7386601207872446,-0.6185340615481155
2.004584341475143,4.016571715179744,-0.01076982188718171,0.7227578002268044,-0.6563523784437338
2.0023162371793086,3.866454300546966,-0.010831171406483299,0.7069318629425133,-0.6945708664852276
2.000033332366608,3.719652487103012,-0.010910779190659707,0.6911806460475203,-0.7331035146082326
1.9977318860534337,3.5761507496005542,-0.011007757125289808,0.6755025682615877,-0.7718639857984272
1.9954083459719327,3.4359338862552242,-0.011121196031861706,0.6598961302653596,-0.8107654003800506
1.9930593528454978,3.298987001453895,-0.011250167077042475,0.6443599154615914,-0.849720111842006
1.9906817443986304,3.165295488257396,-0.011393722893122814,0.6288925911717393,-0.8886394738956275
1.98827255916197,3.0348450106026874,-0.011550898408404052,0.61349291030168,-0.927433597351946
1.985829040133855,2.9076214851017887,-0.01172071138316856,0.5981597135164136,-0.9660110952854734
1.9833486383610515,2.7836110623256616,-0.01190216264353207,0.582891931970519,-1.004278814814765
1.980829016503284,2.662800107450611,-0.012094236001870904,0.5676885906490148,-1.0421415536758762
1.978268052448985,2.545175180132322,-0.012295897848595689,0.5525488123823069,-1.0795017595918064
1.975663843053329,2.430723013458209,-0.012506096395747164,0.5374718226092529,-1.1162592102476956
1.9730147080742197,2.3194304918119393,-0.012723760548152208,0.5224569549742671,-1.1523106714665874
1.9703191943875382,2.2112846274645435,-0.012947798372624181,0.507503657858082,-1.1875495309429895
1.96757608056978,2.106272535683903,-0.013177095129835332,0.4926115019575463,-1.221865404630759
1.9647843819443191,2.004381408128321,-0.013410510826932632,0.47778018904801334,-1.2551437125983909
1.9619433561971233,1.9055984842595848,-0.013646877241599999,0.46300956208280125,-1.2872652208603335
1.9590525096789595,1.8099110204760187,-0.013884994359959954,0.4482996168082931,-1.3181055453713217
1.9561116045242266,1.7173062566255517,-0.014123626161306184,0.4336505151009026,-1.347534614038863
1.9531206667317307,1.6277713795122573,-0.01436149567198826,0.41906260026379105,-1.3754160822785475
1.9500799953703167,1.5412934829560427,-0.014597279198620784,0.40453641455728606,-1.4016066973262316
1.9469901730925865,1.4578595239033625,-0.014829599636906311,0.39007271927774806,-1.4259556062588192
1.9438520781633861,1.377456274015941,-0.015057018736429072,0.3756725177453197,-1.4483036025043874
1.940666898236805,1.300070266083484,-0.015278028183392965,0.3613370816114202,-1.4684823056070524
1.9374361461466474,1.2256877345143948,-0.015491039341916204,0.34706798095132757,-1.486313269247449
1.9341616780114548,1.1542945490547716,-0.015694371469442032,0.3328671186641318,-1.5016070131461443
1.9308457139969952,1.0858761407703739,-0.015886238192077958,0.31873676975870635,-1.5141619757004625
1.9274908621279,1.020417419199461,-0.016064731989780957,0.30467962615476213,-1.5237633863264954
1.9241001455972788,0.9579026794485443,-0.01622780639708881,0.2906988476634994,-1.5301820599389873
1.9206770340908161,0.8983154978629742,-0.016373255569220833,0.2767981198181122,-1.5331731214491477
1.9172254797230353,0.841638614768506,-0.016498690790597934,0.26298171917680896,-1.532474676542772
1.9137499582825188,0.7878538026637543,-0.016601513404796875,0.24925458658274727,-1.527806457710784
1.9102555166066648,0.7369417181718845,-0.016678883508097972,0.23562240857791575,-1.5188684935875003
1.9067478270654725,0.6888817360739097,-0.016727683550876393,0.22209170664088515,-1.5053398781157126
1.9032332503446219,0.6436517639103556,-0.01674447569532001,0.20866993301201037,-1.4868777583177537
1.8997189080077044,0.6012280360550939,-0.016725451322941457,0.19536557037141922,-1.4631167219711891
1.8962127667301485,0.5615848869925095,-0.016666370368068232,0.18218823022462147,-1.43366885866289
1.8927237367064702,0.5246945050082843,-0.016562487000295223,0.1691487410536981,-1.3981249030128566
1.889261787660327,0.4905266699978732,-0.01640845629630716,0.1562592114264069,-1.3560570662347178
1.8858380873387046,0.4590484831377353,-0.016198213433430142,0.14353304438441322,-1.3070244470634964
1.8824651696926127,0.4302241025075588,-0.015924811767445063,0.1309848663791628,-1.2505823169000903
1.879157143716843,0.4040145084008486,-0.015580197525597651,0.11863031558948105,-1.1862971288478332
1.875929960110686,0.38037733619682257,-0.015154884437803254,0.10648561016312638,-1.1137698202392552
1.8728017631373923,0.35926683428002093,-0.01463746768880463,0.09456678904448243,-1.0326708098712614
1.869793371930623,0.3406340293107277,-0.01401387713756852,0.08288849637733685,-0.9427907974909937
1.8669289632627089,0.32442720698555405,-0.013266205413996047,0.07146219243383331,-0.8441113922030588
1.8642370733493479,0.31059282954552714,-0.012370841379916717,0.060293783185460845,-0.7368972214926476
1.8617521118097784,0.299076978033753,-0.011295458996935782,0.04938099311717679,-0.6218036699429563
1.8595167137354607,0.28982725874885773,-0.009994046472754715,0.03871157150085204,-0.4999778650477533
1.8575855313620893,0.2827947265496178,-0.008398166606974039,0.028264925634756154,-0.373103247283645
1.856031832705096,0.27793451879652054,-0.006398963459629021,0.018022767251860125,-0.2433089913041562
1.8549613443759574,0.2752016609739698,-0.0037961634845481203,0.008004450105752882,-0.11286128856970606
