x,y,v_x,v_y,omega
2.375,32.48,0.0,3.6923076923076925,-4.571428571428571
2.3735673279449174,31.715523193195143,-0.013644495762692126,3.5884238010718734,-4.2098562492637255
2.3695279960579247,30.97230440297146,-0.024825331732475416,3.4898503915346364,-3.891646151899358
2.3633542631390982,30.249272960778132,-0.03397212463729915,3.3961633436398992,-3.6101487100682728
2.355436666409074,29.54544239215454,-0.04143355850579069,3.3069849289657416,-3.359910063806545
2.3460992658419975,28.85990137431511,-0.04749406594255831,3.2219771456954924,-3.136428977065014
2.3356117797408498,28.19180596529209,-0.05238675406836877,3.1408362735713538,-2.935968554650984
2.3241993035629114,27.540372877234173,-0.05630349524533086,3.063288374599316,-2.7554092220585686
2.3120501364651647,26.904873616437197,-0.05940285806654616,2.9890855377528305,-2.5921330654322543
2.2993221164817825,26.284629349712052,-0.06181637987042379,2.918002716772356,-2.4439322098292857
2.2861477731792275,25.6790063845744,-0.06365355634438681,2.8498350464433853,-2.308935768772304
2.2726385373981324,25.087412172047713,-0.06500583204699513,2.784395549048841,-2.1855512462622695
2.2588881951893085,24.509291757380566,-0.0659498080370436,2.7215131620668562,-2.0724172624533486
2.2449757329368114,23.944124616934445,-0.0665498324629274,2.6610310326581255,-1.968365208062468
2.23096768979779,23.391421829783543,-0.06686010219441903,2.6028050354456886,-1.8723879812782618
2.216920109690366,22.850723540819963,-0.06692637501913976,2.546702478493164,-1.7836143744500919
2.202880166444542,22.321596678842898,-0.066787370179188,2.492600968907453,-1.7012879917918273
2.1888875211482954,21.80363289857394,-0.06647591835649104,2.440387414606415,-1.6247498193494574
2.174975459237609,21.296446720041565,-0.06601990936433348,2.389957142844769,-1.553423753161647
2.1611718457914395,20.799673842512895,-0.06544307583728054,2.3412131193330743,-1.4868045345140053
2.1474999302670117,20.312969613270937,-0.064765643442983,2.2940652543998383,-1.4244476525100018
2.133979026139998,19.836007634157745,-0.0640048720523885,2.2484297847734243,-1.3659608613349565
2.1206250862856546,19.36847849101978,-0.06317550751278746,2.204228721302422,-1.310997028176606
2.107451191209594,18.91008859307421,-0.06229015987826128,2.161389354369658,-1.2592480820092875
2.094467964223482,18.460559110820963,-0.061359620941857033,2.119843809946986,-1.210439876551619
2.0816839252157333,18.0196250025021,-0.06039313151289274,2.079528650232675,-1.1643278151129732
2.069105792676052,17.587034120294664,-0.059398606960262994,2.0403845136476555,-1.1206931126263735
2.056738742005509,17.16254638844628,-0.05838282799728391,2.002355789670297,-1.079339592369993
2.0445866268099158,16.745933046449466,-0.05735160243694046,1.9653903245850592,-1.040090932826438
2.032652168777139,16.336975951121712,-0.056309902637121836,1.9294391547268839,-1.0027882946907882
2.0209371208340055,15.935466932130648,-0.0552619825355793,1.8944562642356113,-0.9672882698974798
2.00944240752962,15.541207196091861,-0.054211477506189786,1.86039836470523,-0.9334611042288163
1.998168245970673,15.154006774882525,-0.053161489721875003,1.8272246944313046,-0.9011891530174688
1.9871142501174077,14.773684014267594,-0.05211466126160588,1.7948968352346963,-0.8703655359970939
1.976279520817732,14.400065099334824,-0.05107323683054382,1.763378545077396,-0.8408929627559613
1.9656627235963773,14.032983613587984,-0.050039117658548106,1.732635604892532,-0.8126827047212672
1.9552621559136734,13.672280128860113,-0.04901390789101288,1.7026356782300431,-0.7856536933173422
1.9450758053544643,13.31780182348598,-0.04799895457764384,1.6733481824760035,-0.7597317270365725
1.9351013999936968,12.969402126419254,-0.04699538219157119,1.6447441705404184,-0.7348487727483692
1.925336452004564,12.626940385199546,-0.04600412246683664,1.6167962220282321,-0.7109423487386722
1.9157782954222684,12.290281555870152,-0.045025940221691055,1.5894783430136115,-0.6879549787931842
1.906424118846905,11.959295913122542,-0.04406145573415051,1.5627658736302805,-0.6658337081711846
1.8972709937589118,11.633858779100255,-0.043111164151500535,1.5366354027724478,-0.6445296736119489
1.888315899026869,11.31385026943547,-0.0421754523441467,1.5110646892731254,-0.6239977206122909
1.8795557421075513,10.999155055217777,-0.041254613554116484,1.4860325889906163,-0.6041960621442843
1.8709990128376868,10.689663287068775,-0.04023804615887913,1.461508060047491,-0.5819190916895102
1.862653089753842,10.385269160643695,-0.03924693559202264,1.4374836201913666,-0.5606910565143257
1.8545126686973363,10.085869578326175,-0.03828088399374633,1.4139409733088064,-0.5404499025631505
1.8465725333398946,9.791365194366762,-0.03733945274379412,1.390862683447525,-0.5211379438993995
1.8388275628811046,9.501660239567798,-0.036422170673251805,1.368232124161648,-0.5027015065702203
1.8312727381427134,9.21666235623363,-0.035528541120950136,1.3460334314018647,-0.48509060536712145
1.8239031462861317,8.936282442671828,-0.034658047989354165,1.3242514596629222,-0.46825865009517864
1.816713984349212,8.660434506588846,-0.033810160933690554,1.3028717411273811,-0.45216217834740285
1.8097005617721815,8.3890355267758,-0.03298433979993135,1.2818804475683074,-0.4367606121173534
1.8028583020599633,8.122005322527663,-0.03218003841167097,1.2612643547949054,-0.4220160358784981
1.7961827437085227,7.859266430282549,-0.03139670779252675,1.24101080944429,-0.4078929940185844
1.789669540505897,7.600743987007213,-0.03063379889914561,1.2211076979398756,-0.3943583057460375
1.783314461303843,7.346365619891021,-0.02989076492994012,1.20154341745245,-0.38138089578714723
1.7771133893432611,7.096061341943535,-0.029167063266079613,1.1823068487140693,-0.36893163937098883
1.7710623212054704,6.8497634531210565,-0.02846215709383098,1.1633873305476385,-0.3569832201566189
1.765157365451772,6.607406446634965,-0.027775516750915292,1.1447746359865538,-0.3455099998966703
1.759394741005358,6.36892692012011,-0.027106620833979134,1.126458949869217,-0.3344878987552604
1.7537707753223475,6.134263491364557,-0.026454957099454113,1.108430847802702,-0.3238942853080614
1.7482819023923863,5.903356718323437,-0.025820023185891595,1.0906812763984437,-0.3137078753501362
1.7429246606037343,5.676149023159084,-0.025201327182224526,1.073201534690639,-0.30390863872417495
1.7376956905029595,5.452584620067775,-0.024598388063249474,1.0559832566551592,-0.2944777134593516
1.7325917324751763,5.2326094466698905,-0.024010736010874684,1.0390183947532534,-0.2853973265802647
1.727609624367119,5.016171098755624,-0.02343791263728926,1.0222992044302277,-0.2766507210072994
1.7227462990721705,4.803218768192458,-0.022879471124126305,1.0058182295046818,-0.268222088025104
1.7179987820937002,4.593703183813641,-0.022334976289878513,0.9895682883888091,-0.26009650484544633
1.7133687313776806,4.387715221844598,-0.02176074481506675,0.9722218256020883,-0.27864024766102735
1.7088556798537078,4.185358086435031,-0.021220698270389495,0.9549889878223592,-0.29905464611564986
1.7044524867740256,3.986608247260776,-0.020714473917060425,0.9378666233610241,-0.3212302909296683
1.7001520962080683,3.791442823025683,-0.02024162671110514,0.9208517026874921,-0.34506070564780644
1.6959475535204303,3.5998395563387042,-0.019801636980683997,0.9039413133789622,-0.3704421110377018
1.6918320203028387,3.411776789609611,-0.019393917472570747,0.887132655469532,-0.3972731967332658
1.6877987878878316,3.2272334418811965,-0.01901781981321071,0.8704230371820432,-0.4254548992112223
1.6838412895627206,3.0461889865190948,-0.018672640425941824,0.8538098710284434,-0.4548901852119701
1.679953111594048,2.8686234296830975,-0.018357625942367187,0.8372906702667601,-0.48548383973255477
1.6761280031651378,2.694517289506056,-0.018071978142491004,0.8208630457050803,-0.5171422577300644
1.6723598853223967,2.523851575908271,-0.017814858455044796,0.804524702845236,-0.5497732386781295
1.6686428590197437,2.3566077709765914,-0.017585392046411536,0.7882734393612236,-0.5832857831173123
1.6649712123448843,2.192767809838138,-0.017382671523678405,0.7721071429097789,-0.6175898903318324
1.6613394270060662,2.032314061958946,-0.017205760274589588,0.7560237892730086,-0.6525963562700595
1.6577421841534612,1.8752293127975435,-0.017053695464505945,0.7400214408355797,-0.6882165708041753
1.6541743696053601,1.721496745742627,-0.0169254907078847,0.724098245401724,-0.7243623133949922
1.6506310785459615,1.5710999242626187,-0.016820138429246012,0.7082524353602724,-0.7609455461906177
1.6471076197586532,1.4240227741928315,-0.01673661192606971,0.692482327209131,-0.7978782035419257
1.6435995194563442,1.2802495660831923,-0.01667386714353976,0.6767863214541033,-0.8350719768629721
1.64010252476858,1.1397648975259251,-0.016630844168499415,0.6611629029008055,-0.8724380936998374
1.636612606943914,1.002553675378259,-0.016606468447368412,0.6456106413626912,-0.9098870897960448
1.6331259643252825,0.8686010977898171,-0.01659965173007502,0.6301281928129543,-0.9473285728557439
1.6296390251560047,0.7378926359380458,-0.01660929273923755,0.6147143010134268,-0.9846709766062502
1.6261484502744947,0.6104140153673754,-0.01663427756085643,0.599367799659614,-1.0218213036481558
1.6226511357568958,0.4861511968188914,-0.016673479749610264,0.5840876150878365,-1.058684855452902
1.61914421556865,0.3650903564268546,-0.016725760138443888,0.5688727695982179,-1.0951649477232108
1.6156250642885768,0.24721786514614763,-0.016789966338445452,0.5537223854561053,-1.1311626091698983
1.612091299972387,0.13252026726056698,-0.016864931910978882,0.5386356896446403,-1.1665762615782231
1.6085407872268256,0.020984257805338302,-0.01694947518960726,0.5236120194527895,-1.2013013788371314
1.6049716405708503,-0.08740334128183491,-0.017042397724443426,0.5086508289964455,-1.235230122385007
1.6013822281665913,-0.19265560648893398,-0.017142482316118708,0.49375169678547504,-1.2682509502858827
1.5977711760103483,-0.2947855397704586,-0.01724849060048064,0.4789143344671142,-1.3002481968915534
1.5941373726827748,-0.39380609756361196,-0.017359160138314584,0.46413859689621906,-1.3311016197702057
1.590479974767797,-0.4897302220768367,-0.017473200956714452,0.4494244937059098,-1.360685910295798
1.5867984130619348,-0.5825708751866969,-0.017589291480067482,0.4347722025784673,-1.3888701640025878
1.583092399709753,-0.6723410753242973,-0.017706073778805124,0.4201820844463005,-1.4155173065288422
1.5793619364174227,-0.759053937784266,-0.017822148052911605,0.4056547008867079,-1.440483470722874
1.5756073239151513,-0.8427227189486501,-0.017936066254435428,0.3911908340122212,-1.4636173202933365
1.5718291728608809,-0.9233608649859875,-0.01804632473861691,0.3767915092005479,-1.4847593152992005
1.5680284164026104,-1.0009820656627326,-0.018151355816340285,0.3624580210541936,-1.5037409148593892
1.5642063246454974,-1.0756003139914512,-0.01824951806092597,0.3481919630288269,-1.5203837128149191
1.560364521303196,-1.1472299725375237,-0.018339085199087755,0.3339952612194936,-1.5344985028394362
1.5565050028515326,-1.2158858473139347,-0.018418233388182204,0.31987021284153844,-1.5458842708737763
1.5526301605477129,-1.2815832703104917,-0.018485026648196113,0.3058195299828338,-1.5543271150568567
1.548742805731274,-1.3443381918274468,-0.018537400175031766,0.29184638922626654,-1.5595990969754003
1.5448461988860405,-1.404167283907995,-0.01857314120814331,0.277954487731348,-1.561457033693794
1.5409440830184,-1.461088056281028,-0.018589867055099112,0.264148106297533,-1.559641248577578
1.5370407220007483,-1.5151189863183632,-0.018584999779680658,0.25043217977230375,-1.5538743117376181
1.5331409446467603,-1.5662796645544361,-0.0185557369249638,0.23681237485698958,-1.543859819963008
1.5292501954377935,-1.614590957269968,-0.018499017446149724,0.2232951748147573,-1.5292812941464813
1.5253745930239706,-1.6600751874402846,-0.018411481733117074,0.20988796966447434,-1.509801313611649
1.5215209979063156,-1.7027563348947652,-0.01828942414930974,0.19659914894963726,-1.4850610674814837
1.5176970911114984,-1.742660255673833,-0.01812873580133205,0.18343819180336968,-1.4546805919931252
1.513911466270244,-1.7798149190750294,-0.017924834115374908,0.17041574535088205,-1.4182600918158703
1.5101737384230147,-1.8142506584092715,-0.01767257395347719,0.15754367687999632,-1.3753829300284843
1.506494674298989,-1.8460004275494057,-0.017366131989623813,0.1448350768355611,-1.325621137934874
1.5028863510734811,-1.8751000492591174,-0.01699885111045074,0.13230417754265486,-1.2685446692896445
1.4993623542461245,-1.9015884321468093,-0.01656302343580359,0.11996613567346685,-1.2037361293931652
1.4959380311893478,-1.9255077198813169,-0.016049577104924887,0.10783660465515678,-1.1308133542135084
1.492630826547698,-1.946903318257391,-0.015447609958406112,0.09593099892648452,-1.0494629393039643
1.4894607413586134,-1.965823723274191,-0.014743677556686294,0.08426333456684293,-0.9594883947283666
1.4864509832142185,-1.9823200506719019,-0.013920685723265906,0.07284454541132496,-0.8608764239329596
1.48362891590316,-1.9964451569863044,-0.01295614581062608,0.06168027663060417,-0.7538825553154699
1.4810274840782136,-2.0082522740884485,-0.011819395379337612,0.050768457675547406,-0.6391305529036858
1.478687404537573,-2.017793213293359,-0.010467076436285984,0.040097629990275274,-0.5177054319497355
1.4766606516415826,-2.0251165360339556,-0.008835332096956937,0.029648300872553164,-0.39119618567174036
1.4750164013382367,-2.03026682788866,-0.006824194601574204,0.019402097743678296,-0.26161910541154676
1.4738530294312384,-2.033288038849257,-0.00425553784603053,0.009371339976262978,-0.13114796547420024
1.4733352212900441,-2.0342430626153316,-0.000675968260582074,-0.0002758755374748425,-0.0016661062760850165
