x,y,v_x,v_y,omega
2.375,32.48,0.0,2.6153846153846154,-7.63265306122449
2.3738613040129355,32.01391815272041,-0.012652177634049255,2.5633025766107913,-7.245416481076966
2.370581233048346,31.55705565963205,-0.02379305530583417,2.5129473465932386,-6.886923556792911
2.3654164241449123,31.109110872255215,-0.033593710287875174,2.4642169575937958,-6.55432800762551
2.3585946508262174,30.66979968334695,-0.04220377103095345,2.4170184747202166,-6.245125543238885
2.350318408075553,30.238854001676316,-0.049754481754210794,2.3712668771757635,-5.957105769646498
2.340767990935503,29.816020412273048,-0.05636126424634214,2.3268841161938787,-5.68831188496344
2.330104148714729,29.401058993315342,-0.06212587154003811,2.283798316669506,-5.437006727809986
2.3184703815696217,28.993742266135797,-0.06713820785004004,2.241943096436568,-5.201644039904201
2.305994934225132,28.593854259033378,-0.07147787375540239,2.201256982479199,-4.980844034008797
2.2927925320473017,28.201189668935143,-0.0752154837760447,2.161682907501175,-4.773372536489806
2.2789658970181335,27.815553107644526,-0.07841379432582377,2.1231677735057115,-4.578123113012014
2.264607074971667,27.436758421587477,-0.08112867285714014,2.085662071572563,-4.39410169564586
2.2497986004119066,27.064628075733957,-0.08340993336241921,2.049119549022133,-4.220413316775302
2.2346145211074186,26.69899259381463,-0.08530205890966817,2.0134969167481462,-4.05625062481295
2.2191213012587396,26.339690048137747,-0.08684482829787642,1.9787535907727816,-3.9008839127153685
2.203378619219725,25.986565593289136,-0.08807386102450522,1.9448514631006786,-3.753652435584241
2.187440073410513,25.639471038810385,-0.08902109241118798,1.9117546977743334,-3.6139568304850305
2.1713538080996946,25.298264456627322,-0.089715188820126,1.8794295487041508,-3.4812524817459662
2.155163069086715,24.96280981956851,-0.09018191132409395,1.8478441963937748,-3.3550436997615063
2.138906697926645,24.63297666779136,-0.09044443489890663,1.8169686011300858,-3.2348786017668703
2.122619572163584,24.30863980033773,-0.09052362913510317,1.786774370576906,-3.1203446000005934
2.1063329980398207,23.989678989384252,-0.09043830557337777,1.757234640017329,-3.011064416784447
2.090075061296182,23.67597871504575,-0.09020543602260357,1.7283239637437964,-2.9066925578451746
2.073870940950722,23.36742791884116,-0.08984034559362145,1.7000182163072135,-2.806912185096847
2.0577431903183427,23.06391977414723,-0.08935688365503756,1.672294502514246,-2.711432338431279
2.041711988996912,22.765351472151902,-0.08876757547196597,1.6451310752115893,-2.6199854630976382
2.025795369082437,22.471624021980837,-0.08808375691109384,1.6185072600224673,-2.532325205210959
2.010009418475747,22.18264206381111,-0.08731569427434953,1.592403386307865,-2.4482244429920197
1.994368463796593,21.898313693908932,-0.08647269104958347,1.5668007237163226,-2.3674735256547597
1.9788852351202102,21.61855030063569,-0.08556318313244808,1.5416814237641452,-2.2898786955428
1.9635710144897351,21.343266410560982,-0.08459482387282917,1.517028465954804,-2.2152606722732995
1.9484357699297905,21.072379543904702,-0.08357456012655756,1.492825608003881,-2.143453380356794
1.9334941145690934,20.80581685102131,-0.08244383277007551,1.4689820907004782,-2.07126863700051
1.9187579427081658,20.5435078701913,-0.08129141012912139,1.44556214074407,-2.0021430884124767
1.9042307946324994,20.28537765303811,-0.08012134626717034,1.4225513831802608,-1.9359125100860342
1.889915517969405,20.03135378230031,-0.07893728332276931,1.3999360694619405,-1.8724231676599572
1.875814338276125,19.781366262235284,-0.07774249104700695,1.377703042371692,-1.8115310383716017
1.8619289228646219,19.53534741512202,-0.07653990241413908,1.3558397033312677,-1.753101098182398
1.8482604385326524,19.293231783450814,-0.07533214571885553,1.3343339819043645,-1.6970066683716556
1.8348096038005148,19.05495603742086,-0.07412157352711596,1.3131743073173163,-1.6431288160436643
1.821576736190485,18.82045888739682,-0.07291028880654901,1.2923495818386965,-1.591355803567549
1.8085617950305224,18.58968100100273,-0.0717001685263713,1.2718491558734455,-1.541582582478598
1.795764420214498,18.3625649245565,-0.07049288498501037,1.2516628046402174,-1.4937103278219082
1.7831839673072458,18.139055008570768,-0.06928992509556808,1.2317807063123523,-1.4476460093211663
1.7708195393435424,17.91909733706645,-0.06809260783446985,1.2121934215133978,-1.4033019961132678
1.7586700156351367,17.702639660464165,-0.06690210003670523,1.1928918740675603,-1.360595692108542
1.7467340778686868,17.489631331835824,-0.06571943070162702,1.1738673329139784,-1.3194491993211765
1.7350102337494975,17.280023246314443,-0.06454550395603328,1.1551113951013927,-1.2797890067690254
1.7234968384209193,17.073767783474512,-0.0633811108059456,1.1366159697867257,-1.2415457027698311
1.7121921138668443,16.870818752508644,-0.06222693979488613,1.11837326316736,-1.2046537086650515
1.7010941664846135,16.671131340038148,-0.06108358667434444,1.1003757642825929,-1.1690510321856302
1.6902010029976022,16.474662060406473,-0.05995156318133705,1.0826162316249075,-1.1346790388385462
1.679510544860531,16.281368708314655,-0.05883130500834337,1.0650876805063834,-1.1014822398408768
1.6690206412959716,16.091210313667396,-0.05772317904231763,1.047783371129841,-1.0694080952612424
1.6587290810874002,15.904147098507075,-0.056627489941808294,1.030696797318196,-1.038406831148461
1.6486336032423452,15.720140435921124,-0.05554448611436061,1.0138216758590413,-1.0084312695354536
1.6387319066285309,15.539152810815587,-0.05447436515024331,0.9971519364247154,-0.9794366703041477
1.62903038782966,15.361379898697628,-0.05332028817054305,0.9781026426637334,-1.00236652775351
1.6195321565033791,15.187025851354647,-0.05221561545480021,0.9591645500360583,-1.0268396145000112
1.6102284547852865,15.016070907727151,-0.05115884807955955,0.9403348236027959,-1.0527373838249536
1.6011107970686067,14.84849580621178,-0.05014845988355141,0.9216107487902114,-1.0799433493536919
1.5921709745617276,14.68428176329665,-0.049182901303994976,0.9029897280445768,-1.1083428239785305
1.5834010591905736,14.523410452759766,-0.048260602819938596,0.8844692779208059,-1.1378226621393894
1.574793406914332,14.365863985352725,-0.047379978027190156,0.8660470266018752,-1.168271004352628
1.5663406605188848,14.211624888892121,-0.04653942636666583,0.847720711849261,-1.199577022871502
1.5580357519486032,14.060676088680768,-0.04573733552535164,0.8294881793880073,-1.2316306673465391
1.5498719042339362,13.913000888179823,-0.044972083526507285,0.8113473817335928,-1.264322409330413
1.5418426330694603,13.76858294985136,-0.04424204052322361,0.7932963774715581,-1.2975429844393866
1.5339417480947444,13.627406276088475,-0.04354557030695084,0.7753333310049269,-1.3311831309417343
1.526163353928508,13.489455190147034,-0.042881031540121184,0.7574565127888662,-1.3651333234923095
1.5185018510051447,13.354714316989117,-0.042246778719472106,0.7396643000768608,-1.3992835006711601
1.5109519362617223,13.223168563943482,-0.04164116287411002,0.7219551782079762,-1.4335227849123189
1.5035086037230783,13.094803101082405,-0.04106253199971093,0.704327742470661,-1.4677391933261168
1.4961671450326288,12.969603341207389,-0.040509231227505396,0.6867807005850671,-1.501819337824135
1.4889231499770106,12.847554919327948,-0.03997960272380903,0.6693128758531609,-1.535648112849821
1.4817725070537155,12.728643671508095,-0.03947198531280086,0.6519232110340727,-1.5691083688996323
1.474711404132485,12.61285561294401,-0.03898471381198384,0.6346107730113185,-1.602080569889314
1.4677363292634447,12.500176915123394,-0.03851611806624088,0.6173747583288705,-1.6344424322779552
1.4608440716878508,12.390593881902173,-0.0380645216625801,0.6002144996847066,-1.6660685437097562
1.4540317231109046,12.284092924317026,-0.037628240303489886,0.5831294734836175,-1.6968299587717208
1.4472966793004889,12.180660533932574,-0.0372055798122383,0.5661193085658472,-1.7265937692977769
1.4406366420809333,12.080283254499616,-0.03679483373838021,0.549183796244808,-1.7552226464807952
1.4340496217971301,11.982947651675062,-0.03639428052609812,0.532322901805783,-1.782574351890723
1.4275339403316285,11.888640280525085,-0.03600218020169871,0.5155367776383945,-1.8085012143501358
1.4210882347658207,11.797347650499741,-0.03561677052949745,0.4988257781987514,-1.8328495695032265
1.414711461786209,11.709056187529818,-0.035236262577297596,0.4821904770226386,-1.8554591588526717
1.4084029029481357,11.623752192854298,-0.034858835623516896,0.4656316860387063,-1.8761624850623528
1.4021621709225456,11.541421798139414,-0.03448263132748525,0.4491504774600196,-1.8947841204771836
1.3959892168665746,11.462050916397363,-0.03410574707219289,0.4327482085627558,-1.9111399661572994
1.3898843390763855,11.385625188154528,-0.03372622837435027,0.4164265496909731,-1.9250364593514193
1.3838481931011504,11.31212992225548,-0.033342060239374666,0.400187515854004,-1.9362697283682906
1.377881803520995,11.241550030621205,-0.03295115731790897,0.3840335023046125,-1.9446246954216628
1.3719865776198932,11.173869956209142,-0.03255135269433123,0.3679673244960977,-1.9498741304706682
1.3661643212180083,11.109073593351901,-0.0321403851043887,0.3519922628065928,-1.9517776627021903
1.3604172569684174,11.047144199585453,-0.031715884335511334,0.3361121123761501,-1.9500807615955862
1.3547480454727856,10.988064298023907,-0.03127535450484234,0.3203312383077088,-1.9445137071648357
1.3491598096327064,10.931815569308466,-0.03081615482936946,0.30465463630829415,-1.9347905799645917
1.343656162733089,10.878378732171235,-0.030335477388603427,0.28908799854980605,-1.9206083171503299
1.338241240858705,10.82773341173744,-0.029830321215663463,0.273637784047915,-1.9016459032358428
1.3329197403863777,10.779857994883844,-0.02929746181019412,0.2583112921031702,-1.8775637959124625
1.327696961491147,10.73472947233736,-0.02873341480348218,0.2431167361910955,-1.8480037321777527
1.3225788588828824,10.692323267825216,-0.028134391955013528,0.22806331394384768,-1.8125891233083373
1.3175721013936734,10.652613055605194,-0.027496246813974157,0.21316126627863952,-1.7709263360204546
1.3126841426340567,10.615570569294459,-0.026814406070656143,0.19842191495173878,-1.7226072808855528
1.3079233058349091,10.581165407331959,-0.026083780586540473,0.18385766240937038,-1.6672138994855006
1.3032988873599076,10.54936484399187,-0.02529864691347599,0.16948193025826835,-1.6043253722805069
1.2988212854742176,10.520133660040951,-0.024452485149746798,0.1553090025297274,-1.533529171646486
1.2945021641977779,10.493434014376131,-0.02353775125513985,0.14135372707937616,-1.4544374612998896
1.290354667084783,10.469225387678062,-0.02254555000035808,0.12763101401026478,-1.3667107680346637
1.2863937035044408,10.447464641218811,-0.021465156447888458,0.11415505775919066,-1.2700912294557438
1.2826363418600397,10.428106247191476,-0.020283306267679248,0.10093820921122079,-1.1644478122117734
1.2791023622406654,10.411102757222952,-0.018983133947590127,0.08798945710572248,-1.0498351855733665
1.2758150483897768,10.396405573464683,-0.017542575506728112,0.07531258465281708,-0.926565472564581
1.2728023411235443,10.383966052464732,-0.015931949673632297,0.06290431534664098,-0.7952864277453788
1.27009854542121,10.373736871914812,-0.01411022479674934,0.05075324631916194,-0.6570492157544747
1.2677469215265627,10.365673370939327,-0.012018929588220076,0.038841208964015564,-0.5133341846732083
1.2658038428334992,10.359734144343001,-0.009570833668040171,0.027150197661821536,-0.3659893258524771
1.264346390431663,10.3558792343314,-0.006623081907919437,0.015682135800426614,-0.21703558866161668
1.2634909498118578,10.354060806951626,-0.0028818138676940624,0.00452261286372729,-0.06832439757879338
