x,y,v_x,v_y,omega
2.375,32.48,0.0,3.5897435897435894,-3.224489795918368
2.374283653124745,31.841682792836764,-0.007959409725052062,3.502669823181211,-3.0092713344273085
2.37224552091009,31.21870696649668,-0.014686503771115168,3.4192838028197357,-2.815632936087655
2.3690909392318695,30.610430770562754,-0.02036440376466992,3.3393405964461036,-2.640780705658398
2.364994930334888,30.016254574107613,-0.02514680620179187,3.262617141944363,-2.4823468125834673
2.360107033415144,29.435617154720834,-0.029163159573140914,3.1889097401309523,-2.338315887593579
2.3545552927951707,28.86799240646593,-0.032522847315451006,3.1180319071457445,-2.2069655255807397
2.3484495639890617,28.312886407729625,-0.03531858386353997,3.0498125232576587,-2.086817934472069
2.3418842648474656,27.769834800102224,-0.03762918437641577,2.984094228157907,-1.9766004440237552
2.3349406732528273,27.238400437512684,-0.039521833341789686,2.920732022836982,-1.8752130970782328
2.3276888527275976,26.71817127133218,-0.04105395027187011,2.8595920458352637,-1.7817019325118255
2.3201892715065875,26.20875844242033,-0.04227472996157914,2.8005504976297626,-1.6952368651894816
2.312494168123561,25.709794555389173,-0.04322641873871424,2.7434926916053053,-1.6150932964776306
2.304648706628126,25.22093211390529,-0.043945375655004844,2.6883122137711553,-1.5406367658952063
2.2966919566169097,24.741842098794116,-0.04446295780295693,2.6349101763530483,-1.4713100926002678
2.288657726900818,24.272212673171662,-0.04480626126472759,2.5831945527853137,-1.4066225637641754
2.2805752765052043,23.811748000899257,-0.0449987431309821,2.53307958357472,-1.346140812335036
2.2724699225545355,23.360167166408317,-0.045060745209782975,2.4844852441023892,-1.2894810944131148
2.264363561227334,22.91720318543203,-0.04500993620356729,2.4373367667452692,-1.2363027303845777
2.2562751152240015,22.482602097453842,-0.044861686055681284,2.3915642107901625,-1.1863025170904367
2.248220918946491,22.056122131775517,-0.04462938369443799,2.3471020745245554,-1.139209952953442
2.240215050747412,21.637532940049503,-0.04432470740643505,2.303888944653377,-1.0947831459305355
2.232269620089979,21.226614888935444,-0.04395785545393143,2.261867178836134,-1.052805296787309
2.224395016207816,20.82315840724847,-0.04353774323677004,2.220982617685833,-1.0130816685844728
2.21660012381604,20.426963382583438,-0.04307217222740397,2.181184323036756,-0.9754369682718075
2.208892510562829,20.037838602938372,-0.04256797503049763,2.1424243396861886,-0.9397130785695432
2.2012785901922043,19.65560123933251,-0.042031140198667605,2.1046574781567284,-0.9057670884080616
2.193763764788432,19.280076365829615,-0.041466919843248295,2.067841116319885,-0.8734695785130221
2.186352548969475,18.911096513743004,-0.040879922589606744,2.0319350179757594,-0.8427031255982882
2.17904867847449,18.548501257121845,-0.04027419402133766,1.996901166703792,-0.8133609943304106
2.1718552052346567,18.192136826904317,-0.03965328642125241,1.9627036134909566,-0.785345990970346
2.1647745807164123,17.841855751377174,-0.03902031933702187,1.9293083368106196,-0.7585694565533295
2.157808729072176,17.497516520806826,-0.038378032265602983,1.896683113971062,-0.7329503807760694
2.1509591114183193,17.15898327430819,-0.037728830555025634,1.8647974026804037,-0.7084146205349863
2.144226782377137,16.82612550719714,-0.037074825458110805,1.8336222318868267,-0.6848942093922874
2.1376124398637733,16.498817797232675,-0.0364178691348215,1.8031301010517242,-0.6623267462134855
2.1311164689660984,16.176939548298975,-0.03575958528378733,1.7732948871004752,-0.6406548528821403
2.124738980651866,15.860374750206407,-0.0351013959854573,1.744091758372508,-0.6198256924057017
2.1184798459401053,15.54901175340644,-0.03444454525633409,1.7154970949604709,-0.5997905399219866
2.1123387260901327,15.242743057520006,-0.03379011974336051,1.6874884148887996,-0.5805044001333988
2.106315099289735,14.941465112672798,-0.0331390669277256,1.6600443056357177,-0.5619256655639591
2.1004082842621594,14.645078132716034,-0.03249221115644414,1.6331443605505611,-0.5440158107761388
2.0946174611581827,14.353485919487994,-0.03185026777663413,1.606769119761003,-0.5267391183200417
2.088941690053358,14.066595697341246,-0.03121385561030324,1.58090001520288,-0.5100624327330113
2.0833799273306197,13.784317957223436,-0.03058350797568136,1.5555193194394308,-0.4939549393769651
2.0779310401937585,13.50656630965683,-0.02995968243388511,1.5306100979673274,-0.47838796530511934
2.072593819527243,13.233257346013684,-0.029342769416288765,1.5061561647343045,-0.46333479969891755
2.0673669912916726,12.96431050753199,-0.02873309986782859,1.4821420406178374,-0.44877053171800785
2.062252299265807,12.699648453805814,-0.028096811530671825,1.4585474452285618,-0.4337587585747157
2.0572509629446354,12.439196425415602,-0.02747359203790557,1.4353639813293282,-0.41937519983011895
2.0523606391811207,12.182881642776984,-0.02686333866781115,1.4125780479886503,-0.405586567946536
2.0475790057274046,11.930633723376193,-0.026265921929036987,1.390176612020117,-0.3923616716047951
2.0429037656865243,11.682384582267758,-0.02568118963629874,1.3681471780736039,-0.37967126256910944
2.038332651274902,11.438068337787662,-0.02510897049283536,1.3464777605941345,-0.3674878952363538
2.033863426979131,11.19762122215801,-0.024549077237955887,1.3251568575131139,-0.3557857976973242
2.0294938921807324,10.960981496682532,-0.024001309410919058,1.3041734255477637,-0.344540753256948
2.025221883313892,10.728089371253713,-0.02346545577619654,1.283516856994687,-0.3337299914665455
2.021045275613556,10.49888692791205,-0.02294129644975993,1.2631769579126653,-0.32333208781571066
2.0169619845045603,10.273318048216076,-0.022428604761298685,1.2431439275981424,-0.31332687131556497
2.012969966676562,10.051328344198442,-0.021927148883131548,1.223408339264459,-0.30369533928025794
2.009067220884315,9.832865092698786,-0.021436693252941143,1.203961121842837,-0.29441957868069535
2.0052517885082657,9.61787717287828,-0.020956999814274093,1.1847935428294485,-0.2854826935044932
2.0015217539063457,9.406315006733848,-0.020487829095949896,1.1658971921086898,-0.2768687376098966
1.9978752445842947,9.19813050244214,-0.02002894114906163,1.1472639666880726,-0.2685626526095781
1.9943104312086513,8.993277000374565,-0.019580096358087093,1.1288860562849867,-0.26055021036345677
1.9908255274837583,8.791709221635013,-0.019141056140723475,1.11075592971003,-0.2528179596985183
1.987418789911649,8.5933832189815,-0.01871158354937937,1.0928663219956658,-0.24535317700853967
1.984088517451485,8.398256330001846,-0.018291443785777232,1.0752102222227053,-0.23814382041806267
1.980833051093272,8.206287132421753,-0.01788040463881248,1.057780862000543,-0.2311784872232923
1.9776507733588593,8.017435401431285,-0.01747823685466128,1.0405717045602227,-0.22444637434815368
1.9745401077417,7.831662068922856,-0.017084714447109055,1.0235764344223166,-0.21793724157681532
1.9714995180954948,7.648929184540464,-0.016699614955169653,1.0067889476042686,-0.21164137734484284
1.9685275079806455,7.469199878445991,-0.016322719654266776,0.9902033423343137,-0.20554956689001264
1.965625782160579,7.292657783902946,-0.015918678346473675,0.9713754859217311,-0.24793581133256568
1.9627929871788234,7.1194956892358725,-0.01555682145080839,0.9526477881568823,-0.2913893155234249
1.9600216563439026,6.949695787464513,-0.015235743381647645,0.9340177870804229,-0.33581321557687405
1.9573045770590638,6.783240706298976,-0.014954026449892162,0.9154831147588791,-0.3811118245594685
1.9546347927732142,6.620113491411267,-0.014710243392884067,0.8970414951045518,-0.4271904213872296
1.9520056045037202,6.46029759006942,-0.014502959601492648,0.8786907420270933,-0.4739550396953239
1.9494105719841381,6.303776835074217,-0.014330735060530952,0.8604287579196194,-0.521312255732278
1.94684351448723,6.1505354289378005,-0.014192126016226558,0.8422535324849884,-0.5691689742974669
1.9442985113713847,6.0005579282421735,-0.01408568638205367,0.8241631419108558,-0.617432211698793
1.9417699023967365,5.853829228113717,-0.0140099688918157,0.8061557484053363,-0.6660088746564786
1.939252287855895,5.710334546747461,-0.013963526006421782,0.7882296001086357,-0.7148055340179494
1.9367405285632702,5.570059409911693,-0.013944910578299635,0.7703830313999115,-0.7637281920769992
1.934229745746491,5.432989635359636,-0.013952676274801162,0.7526144636229463,-0.8126820422067661
1.9317153208834261,5.299111317070256,-0.013985377759253867,0.7349224062590619,-0.8615712194193755
1.9291928955288022,5.168410809234636,-0.014041570625455592,0.7173054585811487,-0.9102985403540901
1.9266583711754586,5.040874709897736,-0.014119811078363178,0.6997623118288452,-0.958765231069034
1.924107909196866,4.916489844157468,-0.01421865535044457,0.6822917519519032,-1.0068706408674162
1.921537930919762,4.7952432468138895,-0.014336658839600513,0.6648926629767513,-1.0545119402259542
1.9189451178786383,4.677122144350545,-0.014472374950662566,0.6475640310604016,-1.1015838007090606
1.9163264123074426,4.562113936117541,-0.014624353618177986,0.6303049493063176,-1.1479780545453921
1.9136790179282976,4.45020617457137,-0.014791139483430924,0.6131146234289085,-1.193583331311663
1.9110004011023878,4.341386544409723,-0.014971269693345512,0.5959923783671915,-1.2382846689104077
1.9082882924145184,4.235642840419899,-0.01516327128298192,0.5789376659641802,-1.2819630957420802
1.9055406887703497,4.1329629438368904,-0.015365658096670743,0.5619500738470461,-1.3244951806565397
1.9027558560940705,4.033334796980853,-0.015576927195319267,0.545029335664474,-1.3657525469244411
1.8999323327244877,3.936746375913444,-0.015795554688933247,0.5281753428623099,-1.4056013460967343
1.8970689336193438,3.8431856608171984,-0.016019990923777642,0.5113881582070968,-1.4439016872239345
1.8941647554913632,3.7526406037615665,-0.01624865494267203,0.4946680312999169,-1.4805070164931802
1.8912191830153202,3.6650990934721115,-0.01647992812447386,0.4780154163606766,-1.5152634419225206
1.8882318962636035,3.5805489166651014,-0.01671214689459884,0.4614309926061145,-1.548008997348292
1.8852028795486948,3.4989777154471042,-0.01694359438216512,0.44491568759385736,-1.5785728395839922
1.8821324318750405,3.4203729402072476,-0.0171724908806609,0.42847070396010545,-1.6067743723654762
1.8790211792305096,3.3447217973472405,-0.01739698294746044,0.41209755003996185,-1.6324222905994952
1.875870088979518,3.2720111911002654,-0.01761513095244801,0.39579807492643687,-1.6553135386079665
1.8726804866566997,3.202227658583322,-0.017824894856640523,0.379574508595152,-1.6752321766680431
1.8694540755025821,3.1353572971083423,-0.018024117966890286,0.363429507793507,-1.691948151423135
1.8661929591321846,3.0713856826455554,-0.018210508370856925,0.3473662084596983,-1.7052159680288188
1.862899667785357,3.0102977781902247,-0.01838161770500602,0.33138828548843047,-1.7147732657100074
1.8595771886759782,2.9520778306350834,-0.018534816843649275,0.31550002067979066,-1.7203393044926976
1.856229001038875,2.8967092546037314,-0.01866726801305317,0.2997063796685692,-1.7216133803417242
1.8528591165727295,2.8441745015694373,-0.018775892721895473,0.2840130984902409,-1.7182732004179966
1.8494721261009475,2.794454912493716,-0.018857334742348165,0.26842678012889787,-1.7099732720762635
1.846073253430702,2.747530552209632,-0.01890791714926932,0.2529550008053503,-1.6963433921213384
1.84266841759954,2.703380023910956,-0.018923592085864926,0.23760642473551422,-1.6769873719901456
1.8392643049856907,2.6619802624917597,-0.01889988140134889,0.22239092436668095,-1.651482207681545
1.835868453166459,2.6233063062719957,-0.018831805479003205,0.20731970029735428,-1.619378011766525
1.8324893490120213,2.58733104808854,-0.018713796236971916,0.19240539062993045,-1.5801991851039798
1.829136544422524,2.5540249692016523,-0.018539588090775463,0.17766215255770598,-1.5334475412285207
1.8258207945623166,2.52335586351694,-0.018302077022640355,0.16310568838355682,-1.47860843845181
1.822554225768242,2.495288566045126,-0.017993131800407132,0.14875317241437913,-1.4151614634938905
1.8193505441047542,2.469784709386083,-0.017603331127237606,0.13462301268610904,-1.3425978882293592
1.816225301810979,2.4468025466143395,-0.01712158324804151,0.12073435144436012,-1.2604480107535456
1.8131962493097518,2.4262968994000005,-0.01653455565448369,0.10710617315939318,-1.1683225368115908
1.8102838177856553,2.4082193164006114,-0.015825794613254843,0.09375586016714813,-1.065973077406476
1.8075118060669646,2.392518554728305,-0.014974335594420934,0.08069704730290632,-0.953376823109715
1.8049083929661731,2.3791415123053987,-0.013952476636595872,0.06793675739603386,-0.8308476202048425
1.8025076752385987,2.3680347053359405,-0.012722164780898364,0.05547220893128106,-0.6991664095209975
1.8003520708480611,2.359146228580755,-0.011228995113962158,0.04328864390412125,-0.5597032469430984
1.7984962191388982,2.352427723037003,-0.009391579432293873,0.03136141769311149,-0.41446863403820056
1.797013836582369,2.3478349494826105,-0.007079337862475561,0.019669399577907955,-0.26599535990234713
1.7960124159242175,2.3453230957207474,-0.0040475583392068915,0.008240086665023409,-0.11694817172236277
