x,y,v_x,v_y,omega
2.375,32.48,0.0,2.1025641025641026,-6.163265306122449
2.3741142753655606,32.063445775920904,-0.00885724634439179,2.0629781382268355,-5.877468982345282
2.371555673579854,31.654691724303163,-0.016728771512676523,2.024562377950556,-5.610687403161697
2.367511126251895,31.253510084893893,-0.023716701766913303,1.9872540161421575,-5.361215384757334
2.3621483089600828,30.859685156289263,-0.029911471151208343,1.9509952699041497,-5.127534284771662
2.3556178270805215,30.473012347623573,-0.035393347644404466,1.9157328167527443,-4.908288068827893
2.3480551192682038,30.093297334658292,-0.04023373047877184,1.8814173129000644,-4.702262918636416
2.3395821204176315,29.720355305529182,-0.044496258026950994,1.8480029783910488,-4.5083697840092425
2.330308718821662,29.354010283887725,-0.04823775793274737,1.815447238023504,-4.3256293949046745
2.320334036514906,28.99409451917942,-0.051509065134809545,1.7837104090595375,-4.153159339261303
2.30974755713209,28.640447935434857,-0.054355728693349877,1.7527554283861233,-3.9901628835138436
2.298630121805258,28.292917631286418,-0.05681862457497338,1.7225476130982402,-3.83591926951625
2.2870548104924207,27.951357425023282,-0.058934488553399896,1.6930544495331095,-3.689775267296567
2.275087723539586,27.615627439406516,-0.06073638097494573,1.664245406634551,-3.551137800036334
2.2627886761231952,27.28559372172152,-0.06225409318895971,1.6360917702154467,-3.419467487743091
2.250211816418563,26.961127895175263,-0.0635145038573618,1.608566495247099,-3.294272980683953
2.2374061768269216,26.64210683827427,-0.0645418920590541,1.5816440737628392,-3.1751059738700014
2.2244161663173867,26.328412389263995,-0.06535821303629576,1.5553004163399085,-3.0615568105836664
2.2112820108591564,26.01993107308657,-0.06598334154600774,1.5295127454343431,-2.953250596798822
2.198040148000155,25.716553848633037,-0.06643528704400385,1.504259499100992,-2.849843759889356
2.184723580864115,25.41817587433845,-0.06673038431639951,1.4795202438448842,-2.7510209946806974
2.1713752457045774,25.124704291529554,-0.06675296727897634,1.4551955842440538,-2.652221298207595
2.1580327188718904,24.83604967741718,-0.0666723010478935,1.4313505568797273,-2.5579499218041413
2.1447156089387067,24.552117866402227,-0.06649879828394054,1.407967553269779,-2.4679450424248475
2.131441537836992,24.272818129636033,-0.06624191273320683,1.3850298143921627,-2.381962890897542
2.1182263234926415,23.998063010452697,-0.0659102307102984,1.3625213774411922,-2.299776302957465
2.1050841450998887,23.72776817003701,-0.06551155321722912,1.3404270267156557,-2.221173402959973
2.0920276928043005,23.46185224254033,-0.06505296973865254,1.3187322482511317,-2.145956406592175
2.079068303367656,23.200236698930052,-0.06454092462779754,1.2974231878516729,-2.0739405304765635
2.0662160832160787,22.942845718923543,-0.06398127688797056,1.276486612213411,-2.004952997932306
2.053480020121348,22.689606070415667,-0.06337935405933591,1.255909872865352,-1.9388321313603623
2.0408680846316325,22.440446995860995,-0.06274000083781979,1.2356808726813595,-1.8754265227706668
2.0283873222497837,22.1953001051186,-0.06206762298066944,1.2157880347425956,-1.8145942748934707
2.01604393725272,21.954099274309144,-0.061366226989965335,1.1962202733519627,-1.7562023061296836
2.0038433689527246,21.71678055027177,-0.0606394560099892,1.1769669670217955,-1.7001257133113932
1.9917903611191523,21.48328206024224,-0.05989062232573385,1.1580179332734875,-1.646247186876174
1.979889025205869,21.253543926404568,-0.05912273680710129,1.1393634051032242,-1.5944564736181273
1.9681428979645887,21.027508184996073,-0.05833853560570023,1.1209940089817674,-1.5446498826740516
1.9565549939662223,20.805118709671042,-0.05754050437796293,1.1029007442685046,-1.496729830842736
1.9451278535005274,20.586321138851098,-0.05673090027898503,1.0850749639309432,-1.4506044237259645
1.9338635862780729,20.37106280681094,-0.05591177194556149,1.0675083564706298,-1.406187069527416
1.9227639113171242,20.159292678267352,-0.055084977663924645,1.0501929289652634,-1.3633961226553941
1.9118301933609998,19.95096128625636,-0.05425220189732095,1.0331209911446606,-1.3221545545517464
1.9010634761382201,19.74602067309936,-0.05341497033047473,1.0162851404253277,-1.2823896494163265
1.8904645127479822,19.54442433427335,-0.05257466357190522,0.999678247834784,-1.2440327227173662
1.8800337934267168,19.346127165013616,-0.05173252964074753,0.9832934447625485,-1.207018860576105
1.8697783379187483,19.15128837144966,-0.05082202543893764,0.9650944908770381,-1.2110215510139473
1.8597020374520987,18.960077105238806,-0.04994097922755887,0.9470181712314762,-1.2171887037367572
1.8497990122122592,18.772469183428676,-0.04908927317083681,0.9290610468698497,-1.225388026779861
1.8400634168287389,18.588441096163958,-0.0482666806643672,0.9112198257773062,-1.2354905957513185
1.8304894612190847,18.407969977865648,-0.04747287543217376,0.8934913572058063,-1.2473705609047505
1.8210714296855515,18.231033579493857,-0.046707439903158454,0.8758726265120946,-1.260904862703107
1.8118036984035784,18.057610241793604,-0.045969872916571335,0.8583607504904547,-1.2759729546890595
1.8026807514317293,17.88767886942596,-0.04525959680191751,0.8409529731859783,-1.292456532506389
1.7936971953640608,17.72121890588963,-0.044575963874769337,0.8236466621773202,-1.3102392679373698
1.7848477727379608,17.55821030913978,-0.043918262386231435,0.8064393053211601,-1.3292065468338061
1.776127374303309,17.39863352781228,-0.04328572196028512,0.7893285079538896,-1.3492452098241263
1.7675310502522916,17.242469477961947,-0.042677518549888646,0.772311990549427,-1.3702432946757463
1.7590540205033525,17.089699520223448,-0.04209277893950339,0.7553875868355717,-1.392089779180698
1.7506916841275393,16.940305437302392,-0.04153058481862751,0.7385532423749922,-1.4146743234131385
1.7424396280008845,16.794269411702807,-0.040989976447921586,0.7218070136208414,-1.437887010179623
1.7342936347624343,16.651574003594604,-0.04046995593657956,0.7051470674611678,-1.4616180824467007
1.7262496901541056,16.51220212872141,-0.03996949014670695,0.6885716812707906,-1.4857576764852183
1.7183039898156758,16.37613703624491,-0.03948751323759054,0.6720792434942071,-1.510195549416434
1.7104529456059316,16.24336228641664,-0.03902292885985147,0.6556682547884609,-1.534820799781371
1.7026931915192924,16.113861727961716,-0.03857461200653903,0.6393373297608036,-1.5595215796815995
1.6950215892661173,15.987619475051382,-0.03814141052521437,0.6230851993425233,-1.5841847969567044
1.6874352335843996,15.864619883732374,-0.03772214629196014,0.606910713847575,-1.6086958057711283
1.679931457350704,15.744847527670341,-0.03731561604499716,0.5908128467727496,-1.632938083881214
1.6725078365589887,15.628287173052549,-0.036920591872156135,0.5747906994051638,-1.6567928947428021
1.6651621952374935,15.514923752480733,-0.03653582134279591,0.5588435063129799,-1.6801389325019573
1.6578926103761304,15.404742337668775,-0.03616002727083401,0.5429706418065869,-1.702851947788404
1.650697416939917,15.297728110741101,-0.03579190709130373,0.5271716274701419,-1.724804352106314
1.643575213047965,15.193866333906335,-0.035430131828213,0.5114461408774977,-1.7458647984950948
1.636524865402506,15.093142317256358,-0.035073344626377824,0.4957940256222619,-1.7658977360209662
1.6295455150584433,14.995541384413222,-0.034720158814249315,0.48021530280910363,-1.7847629355687333
1.6226365836311745,14.901048835715063,-0.034369155458437564,0.4647101841725044,-1.8023149843470336
1.6157977800489787,14.809649908596828,-0.034018880363521464,0.4492790870098447,-1.8184027465203518
1.6090291079663621,14.72132973478206,-0.033667840462644226,0.4339226511378337,-1.8328687874666298
1.6023308739665878,14.63607329385784,-0.03331449953509777,0.41864175810436066,-1.8455487593715103
1.59570369669545,14.553865362756298,-0.03295727317628171,0.4034375529110718,-1.8562707462666355
1.5891485170845565,14.474690460612791,-0.03259452293265252,0.38831146852400694,-1.864854567280185
1.5826666098413966,14.398532788413558,-0.03222454949894595,0.3732652534683206,-1.8711110379047955
1.5762595964058832,14.325376162785211,-0.03184558485618732,0.3583010028151299,-1.8748411906569833
1.569929459599712,14.25520394321682,-0.03145578320552636,0.34342119286880113,-1.875835458820514
1.563678560226873,14.187998951945552,-0.03105321052286351,0.32862871984388736,-1.873872830336945
1.5575096559226105,14.123743385684051,-0.030635832519761,0.31392694277111194,-1.868719983753053
1.5514259225963332,14.06241871832949,-0.030201500743011696,0.29931973077451834,-1.860130425048103
1.5454309788748304,14.004005593782775,-0.029747936472017202,0.2848115146926173,-1.8478436539696104
1.5395289140306367,13.948483708039586,-0.02927271196992019,0.27040734273928324,-1.831584402356811
1.5337243199840425,13.895831679819306,-0.02877322849602116,0.2561129394635038,-1.8110620064319527
1.5280223281074572,13.846026909213304,-0.028246690269831436,0.24193476659651672,-1.7859700024185143
1.5224286517550147,13.799045424217177,-0.027690073254593543,0.22788008336476687,-1.7559860731724406
1.5169496357152257,13.754861715645735,-0.02710008714329815,0.2139570023496646,-1.720772526968864
1.5115923141814531,13.713448561931962,-0.026473128194425592,0.20017453478806543,-1.6799775637591847
1.5063644794180384,13.6747768468468,-0.02580521943972271,0.18654261606355127,-1.6332376863278157
1.501274764168269,13.63881537546986,-0.025091933057971787,0.1730720977058504,-1.5801817526592836
1.496332742157822,13.605530697086571,-0.02432828704649696,0.15977468612705767,-1.5204373510892855
1.4915490530309603,13.574886948445862,-0.023508604222120894,0.14666280028005635,-1.4536404192250028
1.4869355610798327,13.546845737371804,-0.02262631528915475,0.1337493104605339,-1.3794493204898146
1.4825055617395086,13.521366095370876,-0.021673678114086176,0.12104710954875403,-1.2975649146574275
1.478274056842138,13.498404538495482,-0.02064137085962106,0.10856845920519584,-1.2077584341221048
1.4742581302530673,13.4779152871305,-0.019517895031084358,0.09632405444462025,-1.1099090208221605
1.4704774714955318,13.459850704036214,-0.018288692544270433,0.08432177649825967,-1.0040522062458181
1.4669551189430827,13.44416200782278,-0.016934832980221328,0.07256518563606953,-0.8904387348686236
1.4637185307161065,13.430800290116675,-0.015431049289541414,0.061051991424959595,-0.7695988947979248
1.46080115107012,13.419717781386233,-0.013742747170324905,0.04977309587947483,-0.6423998508233375
1.4582447540053893,13.410869129652411,-0.011821223476980095,0.0387134214587472,-0.5100724709542763
1.456103122284936,13.404212106895645,-0.009595093727550545,0.027856806108919933,-0.3741733691945264
1.4544484890511837,13.399706435374906,-0.006951238609972788,0.017199909098458126,-0.23644572962203783
1.4533858799305048,13.397307130958804,-0.0036748525968178757,0.006793135062553425,-0.09856004584142006
