x,y,v_x,v_y,omega
2.375,32.48,0.0,2.9743589743589745,-2.8571428571428577
2.374358393227903,31.891944803685348,-0.0064160677209697745,2.906192988787506,-2.6799079492222466
2.3725265210218036,31.317256563703253,-0.011902654340023387,2.8406894110334355,-2.5190613083257523
2.369677425676527,30.75541930338409,-0.01658829911274186,2.7776831921582095,-2.3726343275065407
2.3659603651843772,30.205948676115966,-0.020582305808755988,2.7170230805230426,-2.238937894393082
2.361504344600962,29.66838935477714,-0.023977900025395987,2.6585701328652096,-2.1165173299132505
2.356421072628272,29.142312698742185,-0.02685481970150872,2.60219642748434,-2.0041154052598418
2.3508074457012555,28.627314661412985,-0.029281449568653944,2.5477839458076432,-1.9006418476586942
2.344747642061272,28.123013907300024,-0.03131658683118116,2.4952235953219795,-1.8051480857293332
2.33831489264977,27.629050112564208,-0.03301090728383792,2.4444143520362003,-1.7168062467196623
2.331572983218061,27.145082426894064,-0.034408187033250305,2.3952625046652294,-1.6348916202574164
2.324577532113103,26.67078807783821,-0.03554632401633133,2.347680985893299,-1.5587679608657858
2.317377080223091,26.205861101390344,-0.03645819488378962,2.3015887785853573,-1.487875124971339
2.310014023134588,25.75001118484923,-0.037172376001242194,2.2569103868257767,-1.4217186354192815
2.3025254103437303,25.302962609838094,-0.03771375190733146,2.2135753632856106,-1.3598608435643775
2.2949436321281196,24.864453284935642,-0.0381040302487775,2.1715178857388766,-1.3019134203369587
2.287297011228223,24.434233858698846,-0.03836217875018702,2.1306763766291197,-1.247530956730062
2.2796103136542185,24.012066904988036,-0.038504796989858106,2.090993160478964,-1.1964054935515671
2.27190519060513,23.5977261734726,-0.03854643350102448,2.0524141546753913,-1.1482618320669737
2.2642005615658833,23.190995899026916,-0.03849985689144681,2.01488858978146,-1.102853502900404
2.2565129470580065,22.791670164444355,-0.03837628818731929,1.9783687560441174,-1.0599592914921936
2.2488567581999948,22.399552311519365,-0.038185600392797295,1.9428097732057898,-1.0193802354934702
2.2412445491346222,22.01445439608889,-0.03793649026092708,1.9081693810989675,-0.9809370234688165
2.2336872374632053,21.63619668309704,-0.037636626453244566,1.8744077488195567,-0.9444677357761632
2.2261942970588526,21.26460717816052,-0.03729277759027997,1.8414873005456212,-0.9098258779737467
2.218773926986138,20.89952119247588,-0.03691092313686786,1.809372556300796,-0.8768786649460835
2.2114331997121477,20.540780938229574,-0.03649634960303661,1.778029986162252,-0.8455055204475718
2.204178191336239,20.188235151954686,-0.03605373415604916,1.7474278765866325,-0.815596762176954
2.197014096178841,19.841738743528218,-0.03558721741792988,1.7175362076780227,-0.7870524470146559
2.1899453277416248,19.501152468725103,-0.035100466954232516,1.6883265403531542,-0.7597813548366537
2.1829756077727325,19.166342623442432,-0.0345967327346935,1.6597719124735566,-0.7337000924917618
2.1761080449335344,18.837180757883615,-0.03407889565728527,1.6318467431146266,-0.708732302198916
2.1693452043610146,18.513543409149193,-0.03354951006791362,1.6045267442295779,-0.68480796087273
2.1626891692468657,18.195311850821867,-0.03301084107357496,1.5777888390436687,-0.6618627587894595
2.1561415954062,17.882371858259262,-0.03246489733307995,1.551611086582394,-0.6398375476190741
2.1497037596815862,17.574613488421257,-0.03191345991306006,1.5259726117976804,-0.6186778492198689
2.1433766029187704,17.271930873160528,-0.03135810771509714,1.5008535408095909,-0.5983334177591215
2.137160768156248,16.97422202499672,-0.030800239910126582,1.4762349408284825,-0.5787578487191468
2.13106289898822,16.68138943454157,-0.030178451770154,1.4520909637230397,-0.5580897413126161
2.125088657402942,16.393339071170455,-0.029563964082622907,1.428412669988083,-0.5383586422700768
2.119236526894438,16.109979444355655,-0.02895734100241556,1.4051835981599294,-0.5195110505570831
2.1135048878019886,15.83122228156596,-0.028359049922082814,1.3823880297370235,-0.5014970976354739
2.10789203550421,15.55698238388593,-0.02776947305570586,1.3600109470632809,-0.4842702617178272
2.1023961964304894,15.28717748977488,-0.027188917681497646,1.3380379940472138,-0.4677871074902351
2.0970155421420213,15.021728146420624,-0.026617625203183296,1.3164554394953345,-0.4520070487723059
2.091748201704689,14.760557588185293,-0.026055779170138862,1.295250142857986,-0.43689213186024284
2.0865922725497885,14.50359162167915,-0.025503512378864137,1.2744095222034497,-0.42240683754276415
2.081545829995578,14.250758517033589,-0.024960913163245866,1.2539215242521442,-0.408517899994779
2.0766069355824617,14.00198890497666,-0.024428030967915897,1.2337745963171363,-0.3951941409437836
2.071773644356915,13.757215679343922,-0.02390488128755411,1.213957660010226,-0.38240631767205596
2.0670440112236594,13.516373904684432,-0.023391450044996966,1.194460086584658,-0.37012698356664525
2.0624160964719307,13.279400728646348,-0.022887697472291513,1.1752716737961981,-0.35833036006124136
2.0578879705695803,13.046235298849325,-0.02239356155121155,1.1563826241740183,-0.3469922189313294
2.053457718308151,12.81681868397176,-0.02190896106308198,1.137783524601636,-0.3360897740083675
2.0491234423726516,12.591093798799982,-0.021433798291913355,1.1194653271161652,-0.3256015814716284
2.044883266401488,12.369005333004221,-0.02096796141972358,1.1014193308414248,-0.3155074479591747
2.040735337594673,12.150499683422371,-0.020511326648424456,1.08363716497709,-0.3057883458133669
2.036677828921961,11.93552488964745,-0.020063760078696615,1.0661107727721328,-0.2964263348423782
2.0327089409768115,11.724030572728605,-0.019625119372798257,1.0488323964163258,-0.2874044900383045
2.0288269035170123,11.515967876808109,-0.019195255225190395,1.0317945627886336,-0.2787068347454082
2.0250299767282773,11.311289413528652,-0.018774012662162064,1.0149900700059435,-0.2703182788195181
2.021316452243135,11.109949209056076,-0.01836123218925778,0.9984119747198146,-0.2622245613622318
2.017687907368258,10.91207179144175,-0.01792421655951474,0.9803622014234318,-0.2879988105231431
2.014143400282795,10.717793141251875,-0.01752085429511344,0.9624243004753389,-0.31544078616117727
2.0106762539541383,10.527091185718685,-0.01715060899145491,0.9445952548565535,-0.3444429998100588
2.0072799056294475,10.33994444388863,-0.016812874255454992,0.926872163443985,-0.3749004117183314
2.0039479201658748,10.156332003871444,-0.016506980380270847,0.909252236727882,-0.40671020052611645
2.0006740020823743,9.976233500907654,-0.016232200454734502,0.8917327929100238,-0.43977153803327984
1.9974520064422392,9.799629096179494,-0.015987755946615223,0.8743112543715639,-0.4739853681455794
1.9942759486680501,9.626499456292152,-0.015772821795276185,0.8569851445018613,-0.5092541890913322
1.9911400133839297,9.456825733353757,-0.015586531045927528,0.8397520848820905,-0.545481838000479
1.988038562373889,9.290589545583554,-0.015427979054480354,0.8226097928199239,-0.5825732769304547
1.984966141739546,9.127772958378145,-0.015296227288947816,0.805556079234169,-0.6204343794087507
1.9819174883356119,8.968358465765633,-0.01519030675039431,0.7885888468909501,-0.6589717165401265
1.9788875355572149,8.81232897217695,-0.01510922103357587,0.7717060889958802,-0.6980923416966935
1.9758714185493955,8.659667774462388,-0.015051949044618148,0.7549058881497298,-0.7377035727710317
1.972864478905902,8.510358544079576,-0.015017447390316086,0.7381864156783939,-0.7777127709255169
1.969862268921782,8.36438530937658,-0.015004652450884082,0.721545931351558,-0.8180271147144197
1.9668605554621728,8.221732437890584,-0.015012482145208169,0.7049827835084115,-0.858553368388284
1.9638553235081697,8.08238461857843,-0.015039837394822111,0.6884954096131372,-0.899197643111681
1.960842779439696,7.94632684389034,-0.015085603289914512,0.672082337267782,-0.9398651497346175
1.9578193541149407,7.8135443915920035,-0.015148649957638942,0.655742185715593,-0.9804599416535178
1.9547817058061963,7.684022806233038,-0.015227833129805109,0.6394736678740757,-1.0208846461785164
1.9517267230528523,7.557747880151226,-0.015321994403634097,0.6232755929440328,-1.0610401826884408
1.9486515274939271,7.434705633891944,-0.015429961185617864,0.6071468696487968,-1.1008254657018712
1.9455534767449074,7.314882295910369,-0.015550546304580547,0.5910865101669581,-1.140137090820571
1.9424301673868754,7.198264281410445,-0.015682547275738534,0.5750936348322856,-1.1788690013088958
1.9392794381400182,7.084838170158569,-0.01582474519283229,0.559167477686462,-1.2169121328581833
1.9360993732987168,6.974590683091527,-0.015975903220181834,0.5433073929839578,-1.2541540338474937
1.9328883065116271,6.867508657516719,-0.016134764650715856,0.5275128627641276,-1.2904784581508009
1.929644824997601,6.7635790206779305,-0.016300050489546438,0.511783505623752,-1.3257649272560104
1.9263677742971064,6.662788761431145,-0.0164704565153983,0.4961190868441215,-1.3598882581544314
1.9230562636691637,6.565124899741658,-0.016644649764027665,0.4805195300507631,-1.3927180531339285
1.9197096722559075,6.470574453675436,-0.01682126436853587,0.46498493061146323,-1.4241181472711995
1.9163276561509512,6.379124403513313,-0.01699889668102554,0.449515571009778,-1.4539460090790557
1.9129101565240327,6.290761652565617,-0.017176099588160344,0.4341119384671619,-1.4820520894401572
1.9094574089732541,6.205472984206146,-0.01735137591962782,0.4187747451275457,-1.5082791136755878
1.9059699542979947,6.123245014577005,-0.017523170832966794,0.4035049511638645,-1.5324613113946628
1.9024486509106655,6.044064140338957,-0.017689863040324667,0.3883037912166141,-1.554423578710809
1.8988946891344372,5.967916480754351,-0.017849754721957392,0.3731728046294602,-1.5739805675751155
1.8953096076675409,5.894787813290915,-0.01800105994700557,0.3581138700048891,-1.5909356975035485
1.8916953125335063,5.824663501824304,-0.018141891393340177,0.34312924466122907,-1.6050800860454189
1.8880540988817998,5.757528416395548,-0.01827024512372573,0.32822160962633595,-1.6161913962368955
1.884388676056107,5.693366843348432,-0.01838398313320251,0.31339412084481205,-1.624032602409644
1.8807021964098465,5.632162384534787,-0.018480813329402535,0.29865046729163175,-1.6283506806740853
1.8769982884230312,5.573897844140191,-0.018558266538750486,0.2839949366543397,-1.6288752380370117
1.8732810947651914,5.5185551015612475,-0.018613670039646008,0.26943248913510237,-1.625317105715636
1.8695553160615592,5.466114968679694,-0.018644116996674995,0.25496883968044654,-1.6173669396385584
1.865826261263099,5.416557029862727,-0.018646430987929046,0.24061054848923766,-1.6046938971133793
1.8620999057094902,5.369859463128481,-0.018617124548158254,0.22636511885322458,-1.5869444972005096
1.8583829582306857,5.325998841237318,-0.018552350239887622,0.21224110005841398,-1.5637418293284677
1.8546829389944077,5.284949912138327,-0.018447842122890187,0.19824819093151044,-1.534685358649881
1.8510082703352442,5.246685359422628,-0.018298844468744913,0.18439733622548998,-1.4993516998508052
1.8473683835975754,5.2111755455220035,-0.018100022907944387,0.17070080278076624,-1.457296910929915
1.8437738462592788,5.178388243803255,-0.017845350475022247,0.15717221440672108,-1.4080611185082716
1.840236515560313,5.148288371104876,-0.017527956514633184,0.14382651257708592,-1.3511766567115768
1.8367697280159336,5.120837740540594,-0.017139918929162442,0.13067979306572103,-1.2861814160126714
1.833388539342562,5.095994866663691,-0.016671967804551806,0.11774894570330674,-1.212639780238171
1.830110037779375,5.073714872440373,-0.016113047827317734,0.10505099652986548,-1.1301743563129207
1.8269537676973266,5.053949570257124,-0.015449652993168327,0.09260202530262152,-1.0385125137931461
1.8239423232042233,5.036647815061407,-0.014664791937864047,0.08041552665455855,-0.9375520635455319
1.8211022087115438,5.021756247481402,-0.01373635298892985,0.06850014914549696,-0.8274490441804508
1.8184651244045904,5.009220534050879,-0.012634490080605661,0.056856985159748866,-0.7087251895785609
1.816069937854705,4.9989871178683565,-0.01131737541824878,0.045477176665477514,-0.5823794997782508
1.8139658001304002,4.9910052188237515,-0.009724001824800172,0.03434181378056212,-0.44996419175436575
1.8122173475861598,4.985228197915177,-0.007760523617601382,0.0234283953052003,-0.3135540793251052
1.8109145917795555,4.981611967412203,-0.00526703444844283,0.012733909724550544,-0.17552054305340295
1.8101989625009731,4.980102674787339,-0.0018892583373814678,0.0023590165240739477,-0.038060382524897574
