x,y,v_x,v_y,omega
2.375,32.48,0.0,2.6153846153846154,-5.061224489795919
2.3737053916832207,31.885516553278944,-0.011257463624167373,2.5540366604506324,-4.742687546080799
2.3700101153336472,31.304856706771993,-0.020875374198210436,2.4951793961315523,-4.454010297271062
2.364265011111905,30.737466827195007,-0.029082053816943502,2.4386456436683006,-4.191542510615835
2.356772390100349,30.182829884618734,-0.03607117237049784,2.384284291777561,-3.9521648202353354
2.3477933326874014,29.640462000504094,-0.04200758774208902,2.331958178784534,-3.7332001811243525
2.3375537697799333,29.10990944123299,-0.04703208971415346,2.2815423366163747,-3.532341965853138
2.3262495726189005,28.590745982545826,-0.05126527690352482,2.232922521532863,-3.3475952150440573
2.3140508303703693,28.08257058551417,-0.05481074264891858,2.1859939743945773,-3.1772283624851534
2.301105458756924,27.585005336315675,-0.05775770616364912,2.1406603664619275,-3.019733358852428
2.287542255062675,27.097693611071577,-0.06018319552547133,2.0968328965302288,-2.8737925720203785
2.2734734929299294,26.620298434024406,-0.062153866498406075,2.0544295125755996,-2.738251187056457
2.258997133037375,26.152501002860642,-0.0637275238716351,2.013374236674516,-2.612094093689188
2.2441987119520808,25.693999359375933,-0.06495439860918276,1.9735965762359806,-2.494426453721953
2.229152960391221,25.244507187201858,-0.06587822365916321,1.935031007886411,-2.3844573003381138
2.213925193218076,24.803752721159388,-0.06653714306383436,1.897616522917685,-2.281485646360367
2.198572506276113,24.371477755122804,-0.0669644825184552,1.8612962252265357,-2.184888677323381
2.1831448092853205,23.94743673718068,-0.06718940435799914,1.8260169742701609,-2.0941116836984617
2.1676857192157057,23.53139594245347,-0.06723746581256418,1.7917290668360284,-2.0086594492980137
2.152233334602444,23.123132715235975,-0.06713109604188947,1.7583859524465362,-1.928088863224088
2.1368209080095335,22.722434773229274,-0.0668900047660261,1.7259439780465176,-1.8520025633408044
2.1214774311525,22.32909956754995,-0.06653153312121979,1.694362158295458,-1.7800434521726636
2.106228144951269,21.942933692987012,-0.066070955585136,1.663601968338769,-1.7118899529325524
2.091094984918302,21.563752343643408,-0.06552174035370853,1.6336271563882507,-1.6472518952916653
2.0760969707273516,21.191378809669445,-0.06489577435021024,1.604403573820131,-1.5858669384815502
2.0612505475006504,20.82564401128643,-0.06420355805588426,1.5758990208147852,-1.5274974541255557
2.0465698852531484,20.466386066722606,-0.06345437453109128,1.548083105827167,-1.4719278034352217
2.032067142005866,20.11344989105143,-0.06265643631484286,1.5209271174004488,-1.418961953556199
2.0177526952974603,19.76668682324253,-0.061817013323468735,1.4944039070247757,-1.3684213862917503
2.0036624307122946,19.425958733806308,-0.060707026547536375,1.468449044594532,-1.313876383116026
1.989828212954054,19.091132940668516,-0.05959051917629321,1.4430795913862633,-1.2621325593691293
1.976251112434799,18.7620774763664,-0.058471224469402755,1.4182722721103806,-1.2130096947109024
1.9629313982987378,18.438665588492864,-0.057352376713738946,1.394005013746472,-1.1663413623984542
1.9498686463076496,18.120775472161284,-0.05623677103485322,1.370256867397691,-1.121973707452254
1.9370618338079486,17.808290019742707,-0.055126815919068844,1.3470079362421283,-1.079764347406106
1.9245094233487159,17.501096586537194,-0.05402457937860636,1.3242393090231575,-1.0395813819286297
1.9122094363201156,17.199086771162882,-0.05293182956574392,1.3019329985795902,-1.0013024992934496
1.9001595178086657,16.902156209554878,-0.051850070533820534,1.280071884968258,-0.9648141691377213
1.8883569937160132,16.610204381564138,-0.05078057375011427,1.2586396627773107,-0.9300109122169684
1.8767989210578673,16.32313442923382,-0.04972440588593745,1.2376207922689142,-0.8967946389663608
1.8654821322468007,16.04085298590993,-0.04868245334072913,1.2170004540258024,-0.8650740496381043
1.8544032740643648,15.76327001541405,-0.04765544389784285,1.1967645068079045,-0.8347640896215198
1.8435588419423583,15.490298660570488,-0.04664396585873625,1.1768994483535167,-0.8057854542836216
1.8329452100984112,15.221855100438098,-0.04564848495819514,1.1573923788846685,-0.7780641383080127
1.822558658005835,14.957858415649998,-0.04466935932507342,1.1382309670988013,-0.75153102507101
1.812395393620656,14.698230461312,-0.043706852719961074,1.1194034184489843,-0.7261215120866252
1.8024515737388245,14.442895746954086,-0.04276114625248788,1.1008984455328874,-0.701775168985383
1.7927233218128458,14.19178132306871,-0.041832348756022375,1.0827052404268913,-0.6784354248736871
1.7832067435186847,13.944816673805754,-0.040920505975814474,1.064813448816223,-0.6560492822572117
1.773897940330079,13.701933615426604,-0.04002560870771161,1.04721314578507,-0.6345670550093179
1.7647930213277636,13.463066200149946,-0.03914760000807447,1.0298948131423953,-0.6139421281287432
1.7558881134450082,13.228150625049043,-0.038286381581102834,1.0128493181698006,-0.5941307372640356
1.7471793703279062,12.997125145685466,-0.037441819437176886,0.9960678936873815,-0.5750917661891238
1.7386702625742223,12.770036980822908,-0.03655042189920445,0.9786118007696366,-0.5755853134282658
1.730362325952705,12.546948352473713,-0.035692505244424064,0.9612893153103117,-0.5786892194748477
1.7222478282781122,12.32782900183221,-0.03486834409986277,0.9440963424418746,-0.5842626875756602
1.7143189913809476,12.112649591867449,-0.03407806370156848,0.9270289615995223,-0.5921697339532674
1.706568023941392,11.901381668219948,-0.0333216531641305,0.9100834179439649,-0.602278846684839
1.6989871513948611,11.6939976219974,-0.03259897767526914,0.8932561144259981,-0.6144626598129519
1.6915686431469832,11.490470654326032,-0.03190978969758269,0.876543604455462,-0.6285976412302454
1.6843048373176934,11.29077474252242,-0.031253739252763334,0.8599425851411588,-0.6445637929559426
1.6771881632175312,11.094884607757901,-0.030630383357343107,0.8434498910720553,-0.6622443624881158
1.6702111617440125,10.902775684094046,-0.030039194673252938,0.8270624886136541,-0.6815255639717254
1.6633665038720093,10.714424088773338,-0.029479569431122437,0.8107774706968338,-0.7022963079693342
1.6566470073993143,10.52980659365403,-0.02895083467927051,0.7945920520797514,-0.7244479386593413
1.6500456520969282,10.348900597682196,-0.02845225490669529,0.7785035650666199,-0.7478739773158182
1.643555593402995,10.171684100297444,-0.027983038084028126,0.7625094556703503,-0.7724698709447255
1.6371701747896634,9.998135675671293,-0.027542341162333662,0.7466072802092135,-0.7981327449634853
1.63088293892343,9.828234447679183,-0.027129275065782967,0.7307947023308782,-0.8247611588145447
1.62468763773165,9.661960065508179,-0.02674290921056585,0.7150694904604539,-0.8522548633985733
1.61857824148086,9.499292679802885,-0.026382275578910798,0.6994295156725514,-0.8805145591990516
1.6125489469663081,9.340212919251584,-0.026046372373715338,0.6838727499909226,-0.9094416539469371
1.606594184906588,9.184701867513482,-0.025734167276025614,0.668397265122997,-0.9389380186414142
1.6007086266325379,9.032741040385663,-0.025444600324410545,0.653001231640663,-0.9689057406999626
1.5948871901555366,8.884312363105341,-0.025176586432122453,0.6376829186229982,-0.9992468729575018
1.5891250456970416,8.739398147678834,-0.02492901755478998,0.6224406937814171,-1.029863177169527
1.5834176207586457,8.597981070123282,-0.024700764518217122,0.6072730240929494,-1.060655860597146
1.5777606048100985,8.460044147500678,-0.024490678512629305,0.5921784769731857,-1.0915253041619457
1.572149953671663,8.325570714615665,-0.024297592256375473,0.5771557220269283,-1.122370780554734
1.566581893666888,8.194544400239053,-0.02412032082862421,0.5622035334218862,-1.1530901605635087
1.5610529256223984,8.06694910270755,-0.023957662166937586,0.5473207929389945,-1.1835796057515928
1.5555598287927026,7.942768964736906,-0.02380839722172043,0.5325064937622642,-1.2137332454659273
1.5500996647903371,7.821988347269855,-0.023671289755371867,0.5177597450816678,-1.243442835987402
1.5446697816049826,7.704591802162081,-0.02354508576945054,0.5030797775946297,-1.2725973994495676
1.5392678177995984,7.590564043488072,-0.023428512538238234,0.48846595000544746,-1.3010828399493768
1.5338917069772084,7.479889917224114,-0.023320277221673246,0.47391775663766117,-1.3287815340549067
1.5285396826188826,7.372554369037168,-0.02321906502463823,0.4594348362922983,-1.355571892682827
1.5232102834018124,7.26854240987544,-0.02312353686292841,0.4450169825053195,-1.381327891077117
1.5179023591163663,7.167839079018538,-0.02303232648877872,0.4306641553807918,-1.405918563377577
1.5126150773128042,7.070429404201448,-0.022944037020455332,0.416376495202591,-1.4292074580335379
1.5073479308221924,6.976298358376592,-0.022857236810952555,0.40215433805703715,-1.4510520501124546
1.502100746312224,6.885430812620861,-0.02277045458007645,0.3879982337319377,-1.4713031064010929
1.4968736940574985,6.797811484629374,-0.022682173721883678,0.3739089661940423,-1.4898039991376146
1.491667299125679,6.713424882163604,-0.022590825685243707,0.3598875769865705,-1.5063899643028673
1.486482454206369,6.6322552407381465,-0.02249478230875652,0.3459353919304549,-1.520887300721171
1.4813204343391086,6.554286454737245,-0.022392346971768024,0.3320540515556437,-1.533112506894539
1.4761829138313665,6.479502001049468,-0.02228174439990333,0.3182455457293788,-1.5428713536924878
1.471071985697841,6.407884854197658,-0.022161108935102286,0.3045122529820263,-1.5499578929920819
1.4659901840001663,6.339417391823975,-0.022028471044675958,0.29085698505000734,-1.5541534054701485
1.4609405095232026,6.274081289271283,-0.021881741798486634,0.27728303714730573,-1.5552252955124644
1.455926459293279,6.211857401890747,-0.021718694983457583,0.26379424442258664,-1.5529259483761686
1.4509520605292225,6.1527256336154,-0.02153694644312002,0.2503950449282425,-1.546991575411369
1.4460219097249838,6.0966647902935485,-0.02133393011547807,0.23709054917482286,-1.5371410888938275
1.441141217702856,6.04365241631,-0.021106870076937498,0.22388661589950573,-1.5230750711273748
1.436315861663799,5.993664613194017,-0.020852747653993517,0.21078993293511702,-1.5044749362454464
1.4315524455202464,5.94667583930655,-0.0205682622899409,0.19780810086893677,-1.481002432333919
1.4268583701655349,5.902658690447716,-0.02024978427276728,0.18494971529484752,-1.4522997029166558
1.4222419158750412,5.861583662525643,-0.019893296514134167,0.17222444054925526,-1.4179902300946339
1.4177123398486402,5.823418899571337,-0.019494321106746156,0.15964306340122342,-1.3776811299549137
1.4132799931577344,5.788129933792035,-0.019047824031563684,0.14721750859268898,-1.330967481796185
1.4089564633235936,5.755679429615888,-0.018548087569662565,0.13496078859118604,-1.2774396676846134
1.4047547518689494,5.726026951569061,-0.017988533775068982,0.12288684659861361,-1.2166950997399022
1.4006895011690745,5.699128787259394,-0.0173614723107986,0.1110102343550162,-1.1483562304733865
1.3967772929342366,5.6749378725429835,-0.01665772973127024,0.09934554578767055,-1.0720973477754687
1.393037053505572,5.653403886173066,-0.015866091387553884,0.08790650960291442,-0.9876832158222331
1.3894906216746112,5.634473603508756,-0.01497244627297341,0.07670464399977549,-0.8950227583951679
1.3861635673195691,5.618091614920562,-0.013958461162176361,0.06574743068017012,-0.7942398289368375
1.3830864008887511,5.6042015037096995,-0.012799507801459106,0.05503614506647449,-0.68575900682621
1.3802963985441383,5.592747497648155,-0.011461382151694304,0.04456390764259661,-0.5703947678126507
1.3778404232474155,5.583676380517204,-0.009894924776330092,0.03431537175697527,-0.4494151429881466
1.3757794831977095,5.576938946612525,-0.008026293047200534,0.024271010022843455,-0.32452861055902504
1.3741969196394066,5.572489197541614,-0.005735129198911398,0.014422460158984157,-0.1977287602030786
1.3732174246531992,5.570276063710722,-0.0027822185072402163,0.004822181848778282,-0.07094904854308162
