x,y,v_x,v_y,omega
2.375,32.48,0.0,2.6666666666666665,-7.510204081632653
2.3735591887226932,31.952434325345365,-0.014408112773067068,2.608990079879654,-7.085536632229177
2.369426058903848,31.436188169790476,-0.026923185415385433,2.5534714756692383,-6.696449927079252
2.3629554123647925,30.93084404655006,-0.037783279975172085,2.4999697567349104,-6.339004817505002
2.3544577490591188,30.436011305439273,-0.04719335308156346,2.448357654372953,-6.009788209492071
2.344205365626595,29.951323556269095,-0.05533048124367498,2.3985198373288203,-5.705831184688094
2.3324375031759206,29.476436437523954,-0.06234814326306795,2.3503513501226148,-5.4245417420589535
2.319364713427541,29.011025671203782,-0.06837975422073027,2.3037563130791163,-5.163649197166777
2.3051725780031598,28.554785356699288,-0.07354160002307801,2.258646831965809,-4.9211579503817156
2.290024889210707,28.107426465817728,-0.0779352879014501,2.214942076849783,-4.695308839384673
2.2740663801062437,27.668675508271946,-0.0816498031431844,2.172567498608061,-4.484546672179139
2.2574250754583556,27.238273342587966,-0.08476324333569582,2.131454158231714,-4.287492827519342
2.240214322436518,26.81597411184471,-0.0873442868826809,2.0915381492008307,-4.102922033604824
2.222534549614359,26.401544287207464,-0.08945344133890876,2.0527600971716504,-3.929742609911676
2.20447479464322,25.99476180506044,-0.09114410837248296,2.0150647242986017,-3.7669795933463464
2.1861140342763625,25.595415285838016,-0.0924634952960913,1.9784004679256348,-3.613760277487259
2.1675223449799184,25.203303324517332,-0.09345339766835024,1.9427191452811794,-3.4693017791706304
2.1487619179006163,24.81823384425747,-0.09415087312467091,1.9079756573174287,-3.332900315054651
2.1298879482772834,24.4400235059221,-0.09458882310865833,1.8741277260363156,-3.203921925815992
2.1109494163309583,24.068497167257576,-0.09479649635458957,1.8411356606088851,-3.081794430153076
2.091989774127715,23.703487386359377,-0.09479992567784525,1.8089621483731257,-2.966000426984588
2.0730475507844437,23.344833964779355,-0.09462230775486688,1.7775720674271027,-2.8560711938340986
2.0541568866056243,22.99238352623166,-0.09428433403332807,1.7469323180498366,-2.7515813537011344
2.0353480052381663,22.645989127366136,-0.09380447964125241,1.717011670605403,-2.6521442027684805
2.016647631663107,22.305509897512138,-0.09319925610933917,1.6877806279345902,-2.5574076078989654
1.9980793627678644,21.97081070466592,-0.09248343284308717,1.6592113005275935,-2.467050396677619
1.979663996328749,21.641761845311954,-0.09167023154806615,1.6312772930120432,-2.380779174271121
1.9614198234542455,21.318238755941536,-0.09077149719696975,1.6039536006921638,-2.2983255110177567
1.9433628888735437,21.000121744367892,-0.08979784861004722,1.5772165150442612,-2.219443452759247
1.9255072228841095,20.68729573914179,-0.08875881128429423,1.5510435372167526,-2.1439073127489134
1.9078650482819115,20.37965005554969,-0.08766293473768708,1.5254132987042373,-2.0715097097364565
1.8904469651759843,20.07707817683243,-0.08651789632158549,1.5003054884683742,-2.002059821715726
1.8732621162250214,19.77947754939893,-0.08533059318804254,1.4757007858666165,-1.9353818289736677
1.8563356968272668,19.486756594530394,-0.0839336007895029,1.4515087628187344,-1.8661284213875278
1.8396894517659277,19.198826909515432,-0.08252884982388811,1.4277880873309123,-1.8000274977438295
1.8233245650187953,18.915595921847817,-0.08112001764743713,1.404521789345211,-1.7368981498588667
1.807241528558091,18.63697437398826,-0.07971034695960509,1.381693689250353,-1.676571828190542
1.791440224671231,18.36287616997022,-0.0783026919089937,1.359288350930071,-1.6188913623130927
1.775919999558436,18.09321823105821,-0.0768995592189587,1.3372910381900036,-1.5637100695251978
1.7606797291466756,17.827920359811745,-0.07550314489864428,1.3156876742746444,-1.510890942725192
1.745717877953124,17.56690511196283,-0.07411536703687317,1.294464804214526,-1.4603059096728712
1.7310325517377558,17.310097675564453,-0.0727378951168065,1.2736095597692323,-1.4118351566230682
1.716621544602339,17.05742575691209,-0.07137217623736279,1.2531096267543913,-1.365366510077732
1.7024823811204008,16.808819472780563,-0.07001945858201988,1.2329532145608768,-1.3207948710742727
1.6886123540186055,16.564211248555242,-0.06868081243593098,1.2131290276923463,-1.2780216970201512
1.6750085578732614,16.323535721869685,-0.06735714901751139,1.1936262391632255,-1.2369545266071291
1.6616679192354957,16.086729651392005,-0.06604923736014673,1.17443446561356,-1.1975065438019785
1.648587223554193,15.853731830429652,-0.0647577194528784,1.1555437440099754,-1.1595961773212113
1.6357631392263694,15.624483005047303,-0.06348312382535849,1.1369445098135085,-1.1231467323620672
1.6231922390696716,15.398925796415408,-0.06222587774161958,1.118627576505424,-1.0880860516861703
1.610871019480618,15.177004627127719,-0.06098631814891815,1.1005841163714725,-1.0543462034408426
1.5987959175145487,14.958665651245227,-0.059764701511773134,1.082805642453456,-1.0218631933602675
1.5869633260986649,14.743856687841422,-0.05856121264706646,1.0652839915845858,-0.9905766992182489
1.5753696075676114,14.532527157839763,-0.05737597266346758,1.0480113084319926,-0.9604298256094226
1.564011105691536,14.324628023948964,-0.056209046097285706,1.0309800304759997,-0.9313688773192818
1.5528841563491107,14.120111733515223,-0.05506044732696758,1.0141828738614183,-0.903343149707736
1.541985096982445,13.918932164122953,-0.053930146339690295,0.9976128200612802,-0.8763047346783153
1.5313202864390392,13.721230210102103,-0.052717959094366405,0.9794067201472151,-0.8871878769723219
1.5208931538893466,13.527157445415007,-0.051553366402560315,0.9613209267237504,-0.9001403179934172
1.5106942774728591,13.33669014495593,-0.050435397762314704,0.9433520778670269,-0.9150345388256226
1.5007144359081883,13.149805241956635,-0.04936301788439301,0.925496952125942,-0.9317463619762002
1.490944620766185,12.966480300450112,-0.04833513353564081,0.9077524629393015,-0.9501546627398476
1.481376047434058,12.78669348880144,-0.04735059978562878,0.8901156535474123,-0.9701410894387487
1.4720001648855554,12.610423554208726,-0.04640822569939872,0.8725836923797378,-0.991589791344052
1.4628086643640763,12.437649798080411,-0.045506779515391456,0.8551538689034187,-1.0143871531169946
1.4537934870781255,12.268352052198008,-0.044644993344117416,0.8378235899206016,-1.0384215346321497
1.4449468310017326,12.102510655575383,-0.04382156741981003,0.820590376305645,-1.0635830150612802
1.4362611568663364,11.940106431927173,-0.043035173934152765,0.803451860176442,-1.0897631401040742
1.4277291934251042,11.781120667659795,-0.042284460478167744,0.786405782497325,-1.1168546712516099
1.41934394206574,11.625535090298627,-0.04156805311547332,0.7694499911143602,-1.144751335959626
1.4110986808434594,11.473331847264458,-0.04088455910733513,0.7525824392273291,-1.1733475775913946
1.402986968002003,11.324493484911088,-0.04023256930722735,0.7358011843063823,-1.2025383039639588
1.395002645047284,11.179002927733922,-0.0396106602399628,0.7191043874652893,-1.2322186332963756
1.387139839435506,11.036843457656648,-0.03901739587781867,0.7024903133074532,-1.2622836363140497
1.3793929669353786,10.897998693299357,-0.03845132912345391,0.685957330265469,-1.2926280732087922
1.3717567337223575,10.762452569126804,-0.037911003006757434,0.6695039114600632,-1.3231461240894624
1.364226138261676,10.630189314369815,-0.037394951600056986,0.6531286361098203,-1.3537311114824282
1.3567964730363378,10.501193431605905,-0.03690170065332676,0.6368301915292901,-1.3842752133541776
1.3494633261761926,10.375449674876982,-0.03642976794812566,0.6206073757599565,-1.4146691650297691
1.3422225830447856,10.25294302721236,-0.03597766336594427,0.604459100886266,-1.4448019482701548
1.3350704278418513,10.133658677413976,-0.0355438886633989,0.5883843970975723,-1.4745604656485978
1.328003345281187,10.017581995947559,-0.03512693694324436,0.5723824175666035,-1.5038291982316796
1.3210181224062187,9.904698509768295,-0.034725291806437325,0.5564524442260461,-1.532489844424418
1.3141118506089333,9.794993875891965,-0.03433742616641761,0.5405938945372363,-1.5604209376832292
1.3072819279220589,9.688453853502349,-0.03396180070232622,0.5248063293589291,-1.5874974406373465
1.3005260616595284,9.58506427436247,-0.0335968619229787,0.50908946203987,-1.6135903129928237
1.2938422714864324,9.484811011270825,-0.03324103980798168,0.4934431688765883,-1.6385660504295843
1.2872288930070017,9.387679944273401,-0.0328927449863242,0.4778675010976512,-1.6622861915503186
1.2806845819677712,9.293656924307868,-0.032550365405981274,0.46236269855767337,-1.684606789813916
1.2742083191831337,9.202727733917229,-0.03221226244039351,0.44692920534872166,-1.7053778473051318
1.2677994163021988,9.114878044626025,-0.03187676636895561,0.43156768756332153,-1.7244427071844461
1.2614575225494407,9.030093370522515,-0.03154217115862707,0.4162790534717598,-1.7416374017676102
1.2551826325873618,8.94835901753472,-0.031206728462161173,0.40106447640617815,-1.7567899534600577
1.2489750956676646,8.869660027826711,-0.03086864073481034,0.3859254206739213,-1.7697196262975847
1.2428356262586722,8.793981118674235,-0.030526053355114043,0.37086367085082206,-1.7802361267350717
1.2367653163615948,8.721306615106307,-0.030177045615658562,0.35588136482845195,-1.788138753739867
1.2307656497575017,8.65162037552317,-0.02981962042527196,0.3409810310029407,-1.793215500412077
1.224838518461661,8.584905709423957,-0.02945169253313415,0.32616562998919335,-1.7952421125899631
1.2189862417038522,8.52114528630387,-0.029071075044954934,0.3114386012116863,-1.7939811146564806
1.213211587804611,8.460321034718291,-0.028675463947455817,0.2968039146441154,-1.7891808196811905
1.2075177993815307,8.402414030471977,-0.028262420283346825,0.2822661278190183,-1.7805743510137162
1.2019086224017286,8.347404372893426,-0.027829349514674015,0.26783044796649885,-1.767878716768505
1.1963883397040633,8.295271048225633,-0.027373477461979205,0.2535027987114178,-1.7507939991119705
1.1909618097593389,8.245991779346735,-0.026891821985265768,0.2392898900775478,-1.729002749427599
1.1856345116367102,8.199542861389542,-0.02638115924102075,0.22519928949437618,-1.7021697218614262
1.1804125974280764,8.155898983449653,-0.02583798284531853,0.21123948990450062,-1.669942136397851
1.1753029537937743,8.115033037590798,-0.025258453497701682,0.19741996868403858,-1.6319507452656312
1.1703132749022367,8.076915917963976,-0.02463833541767357,0.18375122758417586,-1.5878120921581211
1.1654521499537,8.041516315320571,-0.02397291406769232,0.17024479884987886,-1.537132513951783
1.160729169877544,8.008800515879074,-0.02325688669386827,0.15691319556510133,-1.4795146526718184
1.1561550599480874,7.978732218859619,-0.022484212600696274,0.14376977462945634,-1.4145675339810238
1.1517418484023627,7.951272394554493,-0.02164790285655021,0.13082846842179308,-1.341921631965201
1.147503086326493,7.926379215012101,-0.02073971790214581,0.11810332700211398,-1.261250757440069
1.143454142110139,7.904008102308143,-0.019749724261395648,0.10560780003745598,-1.1723029944501513
1.139612606151484,7.8841119537582465,-0.01866563532515339,0.09335368546153093,-1.0749430470622658
1.1359988604412414,7.866641615206667,-0.01747182177727235,0.08134970005427031,-0.9692077642635584
1.1326368965189713,7.851546672761831,-0.01614781744542855,0.06959972439408979,-0.8553743723334
1.129555509924974,7.838776599641985,-0.014666048494543261,0.058101006804380906,-0.7340356291539394
1.1267900732044516,7.828282191748833,-0.012988318710681667,0.04684307212714099,-0.6061661822333282
1.1243852345236351,7.820016995348411,-0.011060068097483385,0.03580889187708876,-0.47314994884230355
1.122399258002278,7.813937974075987,-0.008799697116088924,0.024981320847131346,-0.3367244677445004
1.1209119692055727,7.810003666895604,-0.006073190850962791,0.014361750956697929,-0.19879679759319194
1.1200443090366288,7.8081644112215365,-0.0026034108384771874,0.0040308057839753535,-0.06111517425361096
