x,y,v_x,v_y,omega
2.375,32.48,0.0,2.6666666666666665,-4.448979591836735
2.374129790197095,31.952363592969117,-0.0087020980290507,2.6096974036421114,-4.198093402991046
2.3716340877749054,31.435917769087673,-0.01625492619284645,2.5547608351723445,-3.9680868998065986
2.3677283473779567,30.93026796946074,-0.022802477776637898,2.501737161096998,-3.7566806128686316
2.362601187035879,30.435042602144478,-0.028469125644139476,2.4505165120656254,-3.5618916513454053
2.356418016144934,29.949891167624806,-0.033362583265312974,2.40099783313107,-3.3819894772969055
2.3493241208066316,29.474482591275425,-0.03757637011771159,2.3530879303627366,-3.215459097366495
2.3414472964522877,29.00850373312079,-0.041191873425727166,2.306700651183627,-3.0609702878521547
2.3329001011796686,28.551658050474895,-0.044280079300463564,2.2617561752753184,-2.9173517543814524
2.3237817900760183,28.10366439318784,-0.046903031736038776,2.218180397595199,-2.783569348100477
2.314179980249218,27.66425591456051,-0.04911506653196465,2.1759043886781266,-2.6587076323712284
2.3041720877694916,27.23317908367096,-0.0509638582652975,2.134863920217346,-2.5419542291260777
2.293826570807303,26.810192787035945,-0.05249131135658817,2.0949990461328523,-2.4325864808856563
2.283204007608267,26.395067509314256,-0.053734320633773404,2.05625373108403,-2.329960049454944
2.2723580333171007,25.987584584228358,-0.054725422277888895,2.0185755197749335,-2.233499140327969
2.2613361558501825,25.587535508099286,-0.05549335239129356,1.98191524151578,-2.1426880965430986
2.2501804678632906,25.194721309407306,-0.05606352747762451,1.9462267454040532,-2.0570641499613274
2.23892826924351,24.808951968644955,-0.05645845872018124,1.9114666622194396,-1.9762111538652334
2.227612612373384,24.430045883450596,-0.05669810998107901,1.877594189724148,-1.8997541500847324
2.2162627805922006,24.057829374623044,-0.05680020783075592,1.8445708985513785,-1.827354647865704
2.204904708750304,23.692136229140804,-0.05678051058820644,1.8123605562710208,-1.758706511444268
2.193561353466202,23.332807276757734,-0.056653042252818,1.7809289675596578,-1.6935323695904976
2.18225301961131,22.979689997133306,-0.056430296296096916,1.7502438286846267,-1.63158047388955
2.1709976486295335,22.63263815478989,-0.05612341352166991,1.7202745947495344,-1.5726219437531368
2.159811073520641,22.29151145948,-0.05574233756725613,1.6909923583493907,-1.5164483455146294
2.14870724465485,21.956175249799664,-0.05529595109065282,1.662369738453939,-1.4628695607905875
2.137698430022264,21.626500198105965,-0.054792195235208285,1.634380778483071,-1.4117119058597627
2.126795393039327,21.302362034991393,-0.05423817459416224,1.607000852662633,-1.362816469336371
2.1160075506223412,20.983641291739538,-0.053640249575696616,1.580206579855911,-1.3160376400757299
2.1053431138845924,20.670223059338106,-0.0530041178017927,1.5539757441584139,-1.2712418011927091
2.0948092135098118,20.361996762759908,-0.05233488594601021,1.5282872216235572,-1.2283061694161157
2.0844120115930638,20.058855949341915,-0.05163713322147329,1.5031209125563891,-1.1871177618432414
2.0741568015143965,19.760698090198964,-0.05091496756519849,1.4784576788731385,-1.1475724745792466
2.064058310377652,19.46742694558732,-0.05006994380224274,1.454253767243277,-1.1065082929488688
2.0541292282743355,19.17894968990626,-0.049220877230924394,1.430518789567342,-1.0673123794832091
2.044370144276421,18.895174204422297,-0.04836996274822063,1.4072360652722788,-1.0298776743082594
2.0347812348846146,18.616011630443715,-0.04751913116984384,1.3843896745135578,-0.994104414252129
2.0253623140031163,18.341376221553155,-0.04667007764513971,1.3619644143920222,-0.9598995565113155
2.0161128775424366,18.071185204295535,-0.04582428696165567,1.3399457581841814,-0.9271762539179826
2.007032143236575,17.805358646742793,-0.044983056096958685,1.3183198173432489,-0.8958533766531247
1.9981190861937108,17.543819334403402,-0.044147514331686254,1.2970733060506758,-0.8658550758181114
1.9893724706405553,17.28649265298653,-0.04331864119986802,1.276193508118017,-0.8371103847765108
1.9807908782686205,17.033306477569035,-0.042497282519480074,1.2556682460569781,-0.8095528546181499
1.97237273354494,16.784191067748168,-0.04168416471732572,1.2354858521516763,-0.7831202204857313
1.9641163263094965,16.539078968394833,-0.04087990763710769,1.2156351413816928,-0.7577540958475603
1.9560198319460378,16.2979049156509,-0.04008503599748015,1.1961053860576096,-0.7333996921037231
1.948081329381537,16.060605747840885,-0.03929998964752742,1.1768862920425465,-0.7100055611823104
1.9402988171417692,15.82712032099224,-0.03852513275015026,1.1579679764439,-0.6875233590212438
1.9326702276658603,15.597389428680934,-0.037760762008941254,1.139340946669149,-0.6659076280436325
1.925193440060863,15.371355725939186,-0.03700711404103124,1.1209960807483486,-0.6451155969235629
1.9178662914580737,15.148963656980964,-0.036264371986859,1.1029246088338707,-0.6251069961076016
1.9106865871156222,14.93015938651806,-0.03553267143765725,1.0851180957951634,-0.6058438877074931
1.903652109396608,14.71489073445526,-0.03481210575248715,1.0675684248328523,-0.5872905085136975
1.896760625738485,14.503107113767726,-0.034102730828741434,1.050267782042473,-0.5694131249993758
1.8900098957173064,14.294759471377123,-0.033404569383043245,1.033208641863564,-0.5521798992918391
1.8833976772996741,14.089800231855286,-0.03271761479328119,1.0163837533548021,-0.5355607651847353
1.8769217323656417,13.888183243795766,-0.03204183454704218,0.9997861272403956,-0.5195273133506261
1.8705798315772526,13.689863728704019,-0.031377173336847815,0.983409023677084,-0.5040526849911896
1.8643751457944338,13.494983349042506,-0.030669684491341616,0.9653947729380276,-0.5259778278314424
1.8583080638572294,13.303694590644458,-0.03000113488070211,0.9474928110424589,-0.5496189091880361
1.852370876836832,13.115975299279611,-0.02937073532327057,0.9297001026060001,-0.5748635986659845
1.846556039713649,12.931803915736147,-0.02877763590855932,0.9120137328286311,-0.6016021201742604
1.8408561829072054,12.751159452142034,-0.02822093215587651,0.8944309031125041,-0.6297270064434162
1.8352641226281354,12.57402146912191,-0.027699670634823374,0.8769489270887421,-0.6591328591024955
1.82977287015617,12.400370053708844,-0.027212854084831158,0.8595652270419044,-0.6897161133181433
1.8243756401409401,12.230185797932304,-0.02675944606746714,0.8422773307234938,-0.7213748060078449
1.8190658580159953,12.063449778005094,-0.02633837518198264,0.8250828685485933,-0.7540083466410006
1.8138371666106496,11.900143534032985,-0.025948538871474174,0.8079795711725,-0.7875172896359213
1.8086834320390965,11.740249050171027,-0.025588806844056188,0.7909652674470926,-0.8218031073476038
1.8035987489416334,11.583748735150351,-0.025258024130575374,0.7740378827596764,-0.8567679626200138
1.7985774451488152,11.430625403098361,-0.024955013797606528,0.757195437760228,-0.8923144798471935
1.7936140858358813,11.280862254573702,-0.024678579331733636,0.7404360474863626,-0.9283455134493575
1.7887034772318668,11.134442857735163,-0.024427506708410852,0.7237579208990181,-0.9647639126226945
1.7838406699454268,10.991351129560677,-0.024200566155989898,0.7071593608458524,-1.001472281164218
1.7790209619675512,10.851571317028718,-0.02399651362276476,0.6906387644737458,-1.0383727311049769
1.7742399014100654,10.715087978169677,-0.02381409195209215,0.6741946241166701,-1.075366628805435
1.76949328903808,10.58188596288895,-0.023652031767764925,0.6578255286906023,-1.1123543320749671
1.7647771806544221,10.451950393456567,-0.02350905206881185,0.6415301656332417,-1.1492349167722251
1.7600878893945677,10.32526664454993,-0.023383860529733222,0.62530732343312,-1.1859058912236127
1.7554219879917126,10.201820322726576,-0.023275153498817442,0.6091558948004274,-1.2222628966622227
1.7507763110734733,10.08159724519247,-0.02318161568357374,0.5930748805406433,-1.2581993917383798
1.746147957554275,9.964583417718202,-0.023101919508410947,0.577063394202029,-1.2936063189845064
1.7415342931908904,9.850765011540059,-0.02303472412543583,0.5611206675794075,-1.3283717509307649
1.7369329533728892,9.740128339065155,-0.022978674054574415,0.5452460571696244,-1.3623805133635987
1.7323418462250253,9.632659828179303,-0.02293239742406535,0.5294390516889069,-1.3955137829973001
1.7277591561049532,9.528345994932486,-0.022894503776654928,0.5136992807792713,-1.4276486565905018
1.7231833475872431,9.427173414349515,-0.022863581400447034,0.49802652505046496,-1.4586576882879287
1.718613170033576,9.32912868908187,-0.022838194136221047,0.48242072762597965,-1.4884083917079973
1.7140476628594539,9.234198415580597,-0.02281687760500211,0.4668820073867375,-1.5167627030372832
1.7094861616198935,9.142369147428479,-0.022798134790602907,0.4514106741344428,-1.5435764011465762
1.7049283050506756,9.05362735542218,-0.022780430901575756,0.4360072459285423,-1.5686984805300381
1.7003740432179884,8.967959383940684,-0.02276218742529773,0.420672468886396,-1.5919704727184474
1.6958236469481105,8.885351403074488,-0.022741775273481247,0.4054073397755594,-1.6132257117731614
1.6912777187304728,8.80578935591997,-0.022717506902895403,0.39021313176962774,-1.6322885395927436
1.6867372053124818,8.729258900364613,-0.02268762727701353,0.37509142378393345,-1.6489734471513084
1.6822034122334806,8.655745344600952,-0.02265030351299836,0.3600441338526851,-1.6630841485697474
1.6776780205788866,8.585233575510518,-0.022603613032942137,0.34507355705164466,-1.6744125862903387
1.6731631062748726,8.517707978954878,-0.022545530007197483,0.3301824085047675,-1.6827378678590101
1.6686611622902654,8.453152350901338,-0.022473909838873547,0.31537387203063527,-1.687825138317405
1.6641751241674845,8.391549798201158,-0.02238647138893529,0.3006516549711772,-1.689424397545614
1.6597083993710042,8.332882627736087,-0.022280776575867915,0.2860200496795293,-1.6872692799087843
1.6552649010239437,8.27713222256887,-0.02215420689473837,0.27148400199264555,-1.681075825450586
1.650849086706944,8.224278903696952,-0.022003936275257097,0.25704918672651916,-1.670541289384592
1.6464660031277063,8.174301776051273,-0.02182689951711927,0.24272208973026518,-1.6553430622781011
1.6421213376488835,8.127178557557915,-0.02161975527110902,0.22851009520332122,-1.6351378107351975
1.6378214779094282,8.082885390473216,-0.02137884212344395,0.21442157564366432,-1.6095610027908052
1.6335735811268535,8.041396634939083,-0.02110012570230435,0.2004659796976555,-1.5782270610781808
1.6293856551848527,8.002684645974082,-0.020779133717702382,0.1866539099523742,-1.5407305006154333
1.6252666543895087,7.96671953719623,-0.020410874235738445,0.17299717782615473,-1.4966485711730404
1.6212265939766413,7.933468937866525,-0.01998972989293524,0.15950881547089246,-1.445546155565009
1.6172766893324413,7.902897754905442,-0.019509316549062822,0.14620301413993617,-1.386983997723257
1.6134295288734832,7.87496795909756,-0.018962288040517184,0.1330949439389013,-1.3205317707712205
1.6096992943091661,7.849638425611431,-0.01834005760265447,0.12020039092239104,-1.2457880551505882
1.606102049686411,7.826864873955646,-0.017632388624898854,0.10753512563545123,-1.1624099439312197
1.6026561329457096,7.8065999715098044,-0.01682677878211183,0.09511389882296445,-1.0701555703496524
1.599382703429867,7.7887936853575965,-0.01590751637631306,0.08294896269913249,-0.9689429340458582
1.5963065301230985,7.773393981091829,-0.014854216691373595,0.0710480799585467,-0.858927026404502
1.5934571553216803,7.7603479544106335,-0.01363953132280843,0.05941218685341214,-0.7405925962111193
1.5908706508158983,7.749603400270665,-0.012225513735011845,0.048033354546273124,-0.614849242446661
1.5885923365320256,7.741110601570647,-0.010557629103715901,0.03689463245392749,-0.48309673584511315
1.5866811916551185,7.734823631736663,-0.008553819665354179,0.02597506588590353,-0.34720472092077603
1.5852178489700957,7.730699409798014,-0.0060796071848754196,0.015267153500605644,-0.20933703280979127
1.5843235070232224,7.7286893044898015,-0.002863812283855343,0.004833899581506925,-0.07157309559195013
