x,y,v_x,v_y,omega
2.375,32.48,0.0,3.5384615384615383,-8.0
2.372166291194749,31.67825562951851,-0.02464094613261519,3.433228639638358,-7.335284564857396
2.3641964501771033,30.900042139291745,-0.0446620192382194,3.333845188420464,-6.7544635453598785
2.3520563692209393,30.144075344787908,-0.06090390211972811,3.239779111612893,-6.243959984166531
2.33653776257551,29.409185318249907,-0.07404050349269861,3.150568945239298,-5.792790952013703
2.318292300377723,28.69430163076319,-0.0846156895315366,3.0658109459495537,-5.392001245377905
2.297858331252469,27.99844121320637,-0.09307099851414902,2.9851492067184275,-5.0342360723146715
2.2756819836929534,27.32069824072581,-0.09976680635120597,2.9082679452864357,-4.713414762254621
2.252133955062041,26.660235606830533,-0.10499866000455219,2.8348853929333826,-4.42447898160377
2.2275229594886143,26.016277665177018,-0.10900999715568419,2.764748882314557,-4.163196605737671
2.2021065646935596,25.38810399616933,-0.11200213149696556,2.6976308481870714,-3.926007641481233
2.176099972575401,24.775044012264996,-0.11414214779136916,2.633325533589754,-3.709902244545773
2.14968316934428,24.17647225729317,-0.11556918465316189,2.5716462487739533,-3.5123234586508514
2.12300677478247,23.591804285770245,-0.11639946371040359,2.5124230688167044,-3.3310891559520197
2.096196847702474,23.02049303125178,-0.11673033698521164,2.4555008835177667,-3.164329005006664
2.0693588495085047,22.462025590320298,-0.11664356035365267,2.4007377332777335,-3.010433282468104
2.042580925438887,21.915920362357173,-0.11620795329519848,2.348003379445082,-2.868011080050936
2.0159366303401485,21.381724495826695,-0.11548156930252615,2.297178068646052,-2.735856009712876
1.989487200345064,20.859011600155256,-0.11451347413298953,2.2481514589316447,-2.61291792704261
1.9632834518659892,20.347379688956384,-0.11334520829375024,2.200821681928137,-2.498279510773838
1.9373673735857126,19.846449325725352,-0.11201199414343632,2.1550945200808433,-2.391136780495454
1.9117734646669704,19.355861947496905,-0.11054373558475654,2.110882681905619,-2.2907828233946312
1.8865298624802982,18.87527834554255,-0.10896584864717668,2.0681051611757346,-2.196594147742281
1.8616592952135191,18.40437728514506,-0.10729995367264043,2.0266866683676565,-2.108019195785447
1.8371798883497379,17.942854248952507,-0.10556445383850115,1.9865571246110907,-2.024568639187105
1.8131058488563592,17.490420290478795,-0.10377502001696458,1.9476512099429089,-1.9458071517383317
1.789448046761,17.046800986058276,-0.10194499820354906,1.909907958931174,-1.8713464109877924
1.766214510402774,16.611735475037058,-0.10008575273754865,1.8732703977750835,-1.8008391259072591
1.7434108488837863,16.184975579240675,-0.09820695612321335,1.8376852178456125,-1.7339739242049261
1.7210406129832634,15.766284993833665,-0.09631683431611728,1.8031024813457686,-1.6704709623101306
1.6991056039386252,15.355438542611754,-0.09442237476769268,1.7694753553665001,-1.610078144855302
1.6776061379670237,14.952221491566231,-0.09252950324623348,1.7367598711163024,-1.5525678598193784
1.656541273135951,14.556428915252287,-0.09064323441526888,1.7049147055266929,-1.4977341512681135
1.635909004143329,14.167865111095207,-0.08876780030318414,1.673900982795735,-1.4453902645355101
1.6157064296964756,13.786343057293749,-0.0869067601042362,1.6436820937386958,-1.39536650929355
1.595929896453646,13.41168391043987,-0.08506309418123847,1.614223531077633,-1.3475083946958153
1.5765751228856717,13.04371653937779,-0.08323928467071262,1.5854927390274163,-1.3016749980058464
1.5576373059076412,12.682277092180652,-0.0814373847034661,1.557458975730324,-1.257737534114055
1.5391112127045279,12.327208593436794,-0.07965907793230009,1.5300931872597345,-1.215578098333016
1.5209912598162607,11.978360569315075,-0.07790572979176337,1.5033678920595592,-1.1750885590214757
1.5032715812455408,11.6355886981247,-0.07617843169275781,1.4772570748132634,-1.1361695800690426
1.4859753479398154,11.298759073440678,-0.07422359705267965,1.451696183308665,-1.0913430940012194
1.4691230012403342,10.967742972331148,-0.07231854816020165,1.4267046959046366,-1.0487889798311105
1.4527031546375313,10.642412010280733,-0.07046272664677848,1.402260191490279,-1.0083627854971298
1.43670456480528,10.322642828076741,-0.06865544580758168,1.3783413928922443,-0.9699309877852993
1.4211161583594933,10.008316837127282,-0.0668959145905629,1.354928093624789,-0.9333700350637708
1.4059270534970225,9.699319980982523,-0.06518325812657527,1.3320010902426935,-0.8985654849838041
1.3911265772548065,9.395542511827884,-0.06351653528399726,1.3095421197976478,-0.8654112266477392
1.376704279025997,9.096878780826955,-0.061894753662174375,1.28753380194956,-0.833808778021888
1.3626499408812436,8.80322704128989,-0.06031688237915814,1.2659595853292716,-0.8036666504803585
1.3489535851673469,8.514489263731278,-0.05878186295907473,1.2448036977890935,-0.7748997733288532
1.335605479790163,8.230570961961028,-0.05728861858165334,1.2240511002130627,-0.7474289719959797
1.322596141532489,7.951381029423629,-0.05583606191986122,1.2036874435904072,-0.7211804943109656
1.3099163377092722,7.676831585066086,-0.05442310176028408,1.183699029083875,-0.6960855799256964
1.2975570864208221,7.406837828073719,-0.05304864857406349,1.1640727708497365,-0.6720800684982721
1.2855096556287384,7.141317900866291,-0.051711619183186674,1.144796161388786,-0.6491040427455776
1.273765561248249,6.880192759795381,-0.05041094064715588,1.1258572392278225,-0.6271015029028716
1.2623165644238485,6.623386053028025,-0.04914555347806602,1.1072445587491977,-0.6060200695070029
1.2511546681319599,6.370824005141607,-0.047914414277487744,1.0889471620022724,-0.5858107117533287
1.240272113234315,6.1224353079916405,-0.04671649787594537,1.0709545523452626,-0.5664274989705508
1.2296613740884172,5.878151017447333,-0.04555079904490562,1.0532566697791417,-0.5478273730175255
1.2193151538064455,5.637904455620308,-0.044416333841805884,1.0358438678471626,-0.5299699396359525
1.2092263792409756,5.401631118239688,-0.04331214064054004,1.0187068919843192,-0.512817276996469
1.1993881957646408,5.169268586852251,-0.04223728089280607,1.001836859210785,-0.4963337598562867
1.1897939619011084,4.9407564455497095,-0.04119083965965014,0.9852252390721834,-0.48048589790693946
1.1804464847930083,4.716148933635658,-0.0400915699760026,0.9678835601804494,-0.48508657860847565
1.1713466418617022,4.495515123293686,-0.03903749899187606,0.9506713123584478,-0.4921568273398365
1.1624840849991875,4.278825696431049,-0.038028212856077416,0.933584573403613,-0.5015603082764657
1.1538485738193838,4.066052217979578,-0.037063188707432866,0.9166195870439554,-0.5131652722623143
1.1454299994900563,3.85716709866006,-0.03614180546063125,0.8997727548649004,-0.5268442231655913
1.1372184061892252,3.6521435595326714,-0.03526335367702988,0.8830406288515371,-0.5424735988975915
1.1292040103883656,3.450955598195968,-0.03442704459131502,0.8664199045111097,-0.5599334656446036
1.1213772181490815,3.2535779565045786,-0.03363201835898142,0.8499074145444562,-0.5791072239368582
1.1137286406056257,3.059986089682507,-0.032877351584111925,0.8335001230387722,-0.5998813252420235
1.1062491077925396,2.870156136714929,-0.03216206418185398,0.8171951201575747,-0.6221449978244126
1.098929680964721,2.684064891906491,-0.031485125625263004,0.8009896173071045,-0.6457899806552657
1.0917616635463119,2.50168977749858,-0.030845460621774474,0.7848809427616772,-0.6707102641945237
1.084736610834857,2.323008817241611,-0.030241954260441347,0.7688665377336966,-0.6968018368906213
1.0778463385781787,2.148000610821356,-0.029673456667196545,0.7529439528772324,-0.7239624362621343
1.071082930533251,1.9766443090404877,-0.029138787201740318,0.7371108452172589,-0.752091303433612
1.0644387451090405,1.8089195896580144,-0.028636738226177644,0.7213649754999063,-0.7810889399975464
1.0579064211887257,1.6448066337898481,-0.028166078472212044,0.7057042059624219,-0.8108568660650007
1.0514788832209128,1.4842861027737904,-0.027725556030509482,0.6901264985250303,-0.8412973783486577
1.0451493456643879,1.3273391154011982,-0.027313900982750536,0.6746299134105628,-0.8723133070935926
1.0389113168665776,1.1739472254157945,-0.02692982769386113,0.659212608201654,-0.9038077706324505
1.0327586024522075,1.024092399177409,-0.02657203677892225,0.6438728373495397,-0.9356839262923408
1.0266853082956597,0.8777569933846046,-0.02623921675627616,0.6286089521531042,-0.9678447163199789
1.020685843148224,0.7349237327453295,-0.025930045395338896,0.6134194012318919,-1.000192607418651
1.0147549209898354,0.5955756874785862,-0.025643190764562097,0.5983027315224122,-1.0326293224045695
1.0088875631740009,0.4596962505226756,-0.025377311981825492,0.5832575898333238,-1.0650555623902251
1.0030791004344726,0.3272691143166,-0.025131059666245757,0.5682827250021,-1.0973707177873964
0.9973251748228591,0.1982782470104354,-0.02490307608691533,0.5533769907036934,-1.1294725662915877
0.991621741647819,0.07270786794788364,-0.024691995000390005,0.5385393489706697,-1.161256955861823
0.9859650714888251,-0.04945757775060855,-0.024496441164775045,0.5237688744944553,-1.192617470544104
0.9803517523607705,-0.16823344569319687,-0.02431502951395922,0.5090647597889317,-1.223445076802832
0.9747786921100174,-0.28363492001967217,-0.02414636397085047,0.4944263213108286,-1.2536277478219209
0.9692431211279398,-0.3956770427347607,-0.023989035873303307,0.4798530066464746,-1.2830500630166974
0.9637425954747276,-0.5043747448316509,-0.02384162198071467,0.4653444028917295,-1.31159277976058
0.9582750005143112,-0.6097428794969417,-0.023702682022906804,0.4509002463716398,-1.3391323740801435
0.9528385551709095,-0.7117962577246004,-0.02357075574580377,0.43652043386885514,-1.3655405468140815
0.9474318169290945,-0.8105496867083914,-0.023444359400413235,0.42220503555542566,-1.3906836914748768
0.9420536877125987,-0.9060180114301986,-0.023321981612593946,0.4079543098515731,-1.4144223198108685
0.9367034207926543,-0.9982161599169075,-0.023202078560834408,0.3937687204676318,-1.436610440862429
0.9313806288947393,-1.0871591927016837,-0.02308306837755697,0.3796489559216986,-1.4570948891713695
0.9260852936935808,-1.172862357097216,-0.022963324675995603,0.3655959518655094,-1.4757145977850181
0.920817776910597,-1.255341146970082,-0.0228411690890824,0.3516109165941716,-1.492299811865301
0.915578833256177,-1.334611368796871,-0.02271486268848347,0.33769536016050355,-1.5066712391699997
0.9103696254920282,-1.4106892148846981,-0.022582596130201804,0.3238511275597211,-1.5186391345653685
0.9051917419271576,-1.4835913447505717,-0.022442478346934205,0.3100804364913336,-1.5280023172698278
0.9000472167061311,-1.5533349757742343,-0.022292523575035743,0.29638592023616034,-1.534547122026486
0.8949385533017464,-1.6199379843640855,-0.02213063646309191,0.2827706761973087,-1.538046289305415
0.8898687516885508,-1.6834190189990963,-0.021954594955999353,0.26923832062886227,-1.5382578055938303
0.8848413397522248,-1.743797626620271,-0.021762030577270875,0.2557930499900424,-1.5349237137851783
0.8798604095879583,-1.801094393924508,-0.021550405633742973,0.24243970917725438,-1.5277689269941395
0.8749306594665749,-1.8553311051323007,-0.02131698672611268,0.22918386654267325,-1.5165000987905044
0.8700574424127734,-1.9065309177115424,-0.02105881374172621,0.21603189501597148,-1.5008046317457757
0.8652468225652079,-1.9547185572703967,-0.020772663193625387,0.2029910576696902,-1.480349948501809
0.8605056408048348,-1.9999205322705649,-0.02045500428787886,0.1900695945056684,-1.454783211325495
0.8558415915971516,-2.042165368189657,-0.020101945344150305,0.17727680479080796,-1.4237317659085205
0.8512633136789285,-2.0814838590235425,-0.019709166988223944,0.16462311550387293,-1.3868047150770746
0.8467804982671359,-2.1179093311950297,-0.01927183659258171,0.1521201207699585,-1.34359621452475
0.8424040201007343,-2.151477910491849,-0.018784495289171126,0.1397805687675894,-1.2936913468224929
0.8381460992120082,-2.1822287758667898,-0.0182409037432295,0.12761826057975162,-1.2366757960569676
0.8340205054633527,-2.210204373875179,-0.017633824505949452,0.11564780905843657,-1.172151033891356
0.8300428245510363,-2.2354505532117486,-0.01695470516636794,0.10388418517261473,-1.0997573350920782
0.8262308149261122,-2.258016559636225,-0.016193204615580607,0.09234195764891844,-1.019207590177005
0.8226049023596536,-2.2779548085053634,-0.01533646987536394,0.08103411947402206,-0.9303353183521847
0.8191888864656374,-2.295320330374693,-0.014368016159560144,0.06997041852014203,-0.8331598616838896
0.8160109773162838,-2.3101697795338367,-0.013265976443514321,0.05915522634198227,-0.7279691047950928
0.8131053507619492,-2.3225599394871708,-0.01200034142026551,0.04858529499138017,-0.6154128588684862
0.8105145325726679,-2.3325458178642293,-0.010528512399571824,0.038248430026515165,-0.4965854209743539
0.8082931735145951,-2.3401788051791144,-0.008787653322801067,0.028125372711621275,-0.3730534321753177
0.8065144823342536,-2.345506181419573,-0.006679226506255543,0.018199638074955463,-0.24676374363049627
0.8052833642517359,-2.3485752957200106,-0.004026148124333551,0.008488312363612137,-0.11976666089143614
