x,y,v_x,v_y,omega
2.375,32.48,0.0,3.128205128205128,-6.040816326530612
2.373871489367485,31.923148407519054,-0.012539007027943729,3.0590347882497846,-5.683991373372363
2.370640682301442,31.378510795949264,-0.023358849261425313,2.9924942291923413,-5.358515693085804
2.365596763438626,30.845628728905435,-0.03268469365874895,2.9284176268501914,-5.060788792848339
2.3589912825258055,30.32407227012327,-0.0407095387059235,2.866654137396095,-4.787702955776253
2.351043484860213,29.813437454277672,-0.04759932424510673,2.807066038666102,-4.536565782765865
2.341944803439853,29.313344065411705,-0.0534971359811122,2.7495271709557425,-4.305036473977487
2.331862659668753,28.823433674355126,-0.0585266836977767,2.6939216185618244,-4.09107312756527
2.320943690789939,28.34336789589142,-0.06279519273349464,2.6401425865904837,-3.8928889314351167
2.3093164997829074,27.87282683372345,-0.06639581845574405,2.5880914374980404,-3.708915577228174
2.2970940057566174,27.41150768700644,-0.06940967072525749,2.5376768593576444,-3.5377725726775116
2.2843754587885656,26.95912349674115,-0.07190751780864711,2.4888141435900484,-3.378241396285147
2.271248171884836,26.515402013929275,-0.07395122556612796,2.441424554319629,-3.229243646631232
2.2577890136489827,26.08008467429509,-0.07559497705446429,2.395434774949123,-3.089822501947322
2.2440656978819926,25.652925666728862,-0.07688630924542644,2.350776420231199,-2.9591269344741993
2.230137900333483,25.23369108452728,-0.07786699684912551,2.3073856042307943,-2.8363982264848775
2.216058227909473,24.822158150083837,-0.07857380786209626,2.265202556251919,-2.720958416623589
2.2018730615993602,24.41811450498805,-0.0790391511391531,2.2241712781457057,-2.612200370891325
2.1876232910454956,24.021357558580135,-0.07929163279267824,2.184239237497779,-2.509579225634037
2.17334495590981,23.6316938889191,-0.07935653538160588,2.145357092069312,-2.4126049929041
2.159069806887574,23.248938690890583,-0.07925623153212628,2.107478441580878,-2.320836153616155
2.1448257972940294,22.87291526683197,-0.079010541729482,2.070559603514789,-2.2338740926005896
2.130637514537528,22.503454555607014,-0.07863704445387007,2.034559410095849,-2.1513582532226447
2.1165265594381504,22.140394696537257,-0.07815134553920934,1.9994390240125315,-2.0729619086688684
2.102511880209185,21.78358062500627,-0.07756731256040769,1.9651617707762414,-1.9983884630871618
2.088610066954161,21.432863696905585,-0.07689727916208139,1.9316929858980183,-1.9273682091247044
2.074835611714861,21.0881013393978,-0.07615222349680567,1.898999875299624,-1.8596554795379334
2.0612011384115636,20.749156725738874,-0.07534192431761448,1.8670513875773098,-1.7950261398510268
2.0477176064258074,20.415898472135197,-0.07447509774634349,1.835818096907975,-1.7332753768372833
2.034394491071705,20.08820035481542,-0.07355951729923793,1.8052720955340003,-1.6742157441533572
2.0212399437705795,19.76594104567736,-0.07260211937993227,1.7753868948888845,-1.6176754319825635
2.008260934374153,19.449003865029276,-0.07160909613591768,1.7461373345342868,-1.5634967322143334
1.9954633777641577,19.137276550085623,-0.0705859773084769,1.7174994981729246,-1.5115346746448257
1.9828522465831961,18.830651038002568,-0.0695377024799846,1.689450636083268,-1.4616558130457353
1.9704316717162975,18.529023262349707,-0.06846868493000033,1.6619690933929563,-1.4137371428109728
1.958205031939333,18.23229296201405,-0.06738286814738416,1.6350342436699081,-1.3676651343339037
1.946175033974591,17.940363501620954,-0.06628377590530421,1.6086264273644792,-1.3233348683573567
1.9343437840413926,17.653141702636603,-0.06517455668578877,1.5827268946838435,-1.2806492613296494
1.9227128518573129,17.370537684388086,-0.06405802313731739,1.557317752521914,-1.239518370338267
1.9112833279305308,17.092464714301627,-0.06293668716026297,1.53238191510538,-1.1998587685169035
1.900055874883631,16.818839066717693,-0.061812791138624514,1.5079030580494412,-1.1615929829634155
1.8890307734618004,16.549579889694094,-0.060688335770605326,1.4838655755461332,-1.1246489881928368
1.8782136188616017,16.28461167853102,-0.05950227089826823,1.4602256595990994,-1.0869672121499385
1.867608655558628,16.0238614143547,-0.058330654690328165,1.4369994979156142,-1.0508681359502003
1.8572132156481276,15.767255861248376,-0.057174233204121114,1.414173314376866,-1.0162675727732793
1.8470245086984431,15.514724210674757,-0.05603362179237243,1.3917339142188863,-0.9830866591396915
1.8370396439492809,15.266197979631471,-0.05490931986498627,1.369668652928743,-0.9512514643215962
1.8272556499963135,15.021610914226539,-0.053801724056872856,1.3479654071260498,-0.9206926322586368
1.8176694922331356,14.780898898329848,-0.052711139978436614,1.3266125472816384,-0.8913450529587915
1.8082780882916423,14.543999866982091,-0.05163779270482397,1.305598912137908,-0.8631475606735395
1.799078321695426,14.310853724266067,-0.05058183614202379,1.2849137847068037,-0.8360426564114148
1.7900670539173549,14.081402265366599,-0.04954336139209883,1.264546869731727,-0.8099762525983809
1.781241135011733,13.855589102564927,-0.048522404225921814,1.2444882725090471,-0.7848974379110584
1.7725974129730404,13.633359594931509,-0.047518951759550426,1.2247284789733917,-0.7607582605028587
1.7641327419569177,13.41466078149763,-0.046532948419591824,1.2052583369586067,-0.7375135280162699
1.7558439894845488,13.19944131770156,-0.04556430127339586,1.1860690385532944,-0.7151206229293433
1.7477280427387063,12.987651414918904,-0.04461288479151898,1.167152103476226,-0.6935393319229468
1.7397818140482464,12.779242782899797,-0.043678545102479774,1.1484993634027447,-0.672731688079439
1.7320022456476296,12.574168574947478,-0.04276110379326363,1.1301029471785817,-0.6526618248347125
1.724386313788946,12.372383335683793,-0.041860361303222064,1.1119552668623582,-0.633295840705472
1.7169310322758082,12.17384295125736,-0.0409760999538631,1.0940490045424747,-0.6146016739034218
1.7096334554812391,11.978504601859505,-0.04010808665246159,1.076377099878146,-0.5965489860288457
1.7024906809052147,11.786326716421847,-0.03925607530336441,1.0589327383180522,-0.5791090541088363
1.6954998513217583,11.59726892937741,-0.03841980895726407,1.041709339953482,-0.5622546703110549
1.6886581565603085,11.411292039374661,-0.03759902172551203,1.0247005489659669,-0.5459600487231151
1.68196283496148,11.228357969840818,-0.03679344048369409,1.0079002236322776,-0.530200738641184
1.6754111745431937,11.048429731297208,-0.03600278638615322,0.9913024268522894,-0.5149535438597661
1.669007172568886,10.871696830263996,-0.035152791106152693,0.9723964735167181,-0.5500961003049047
1.6627516395216908,10.698357639322182,-0.03435313164045945,0.9535945369478636,-0.5864772820562868
1.6566356678342933,10.52839366826339,-0.033602109330624665,0.9348940303720448,-0.6239915812907042
1.650650656264478,10.361786883145523,-0.032898019222878,0.9162924709375839,-0.6625350044599546
1.6447883108101178,10.19851968781905,-0.03223915249223707,0.8977874771343367,-0.7020048396030826
1.6390406452153106,10.038574905884108,-0.03162379856117659,0.8793767665872363,-0.7422994249798109
1.6333999811210598,9.881935763011029,-0.031050246930498893,0.8610581542247339,-0.783317917999549
1.62785894791093,9.728585869556461,-0.030516788737607905,0.8428295508260207,-0.8249600633977158
1.622410482299596,9.578509203406249,-0.030021718054994085,0.8246889619541029,-0.8671259595799639
1.6170478277101037,9.431690092974709,-0.029563332939364535,0.806634487285214,-0.9097158220147533
1.611764533484008,9.28811320028765,-0.029139936239477523,0.7886643203487497,-0.9526297425050362
1.6065544539673045,9.147763504073627,-0.028749836168338705,0.7707767486959419,-0.9957674431098997
1.6014117475142875,9.010626282784198,-0.02839134664296159,0.7529701545199354,-1.0390280234161169
1.5963308754511085,8.876687097459467,-0.028062787392358828,0.7352430157548516,-1.082309699776821
1.5913066010409356,8.745931774349707,-0.027762483831783917,0.7175939076869192,-1.1255095350389974
1.5863339884932146,8.618346387197363,-0.027488766698451676,0.7000215051169066,-1.168523157172159
1.5814084020606645,8.493917239076037,-0.02723997144099463,0.6825245851200339,-1.2112444650863428
1.57652550526932,8.37263084367407,-0.02701443735172144,0.6651020304573868,-1.2535653197873249
1.571681260329209,8.254473905899747,-0.026810506427288883,0.6477528337017661,-1.295375218859585
1.566871927776186,8.139433301672995,-0.026626521939631553,0.6304761021510386,-1.3365609520920367
1.5620940663990819,8.027496056754174,-0.02646082669485854,0.6132710636136193,-1.3770062358670534
1.5573445335107512,7.918649324444196,-0.02631176095326214,0.5961370731639131,-1.4165913237193548
1.5526204856268908,7.812880361971185,-0.026177659978520413,0.5790736209806406,-1.4551925902379728
1.5479193796227557,7.7101765053570865,-0.0260568511785334,0.5620803413982356,-1.4926820852327396
1.543238974445226,7.610525142532335,-0.025947650794021566,0.5451570233212302,-1.5289270548188776
1.5385773334662103,7.513913684437757,-0.025848360083929444,0.52830362217408,-1.5637894257936495
1.533932827573274,7.42032953381948,-0.025757260948695192,0.511520273584545,-1.5971252493949557
1.5293041391047835,7.329760051384362,-0.025672610923424165,0.4948073090278834,-1.6287841002548538
1.5246902667500262,7.2421925189395715,-0.02559263746276801,0.4781652736920289,-1.6586084261090468
1.5200905315498885,7.157614099089816,-0.025515531427649518,0.4615949468608207,-1.686432843623221
1.515504584151044,7.076011791008547,-0.02543943967062207,0.4450973651532982,-1.7120833755883205
1.5109324134865738,6.997372381734586,-0.025362456601270716,0.4286738490018144,-1.7353766247774558
1.5063743570788914,6.921682392372464,-0.025282614595197924,0.4123260327995488,-1.756118880031563
1.5018311131872981,6.848928018492739,-0.025197873089173678,0.39605589919740725,-1.7741051507714043
1.4973037550530637,6.779095063937902,-0.02510610618009755,0.3798658180785478,-1.789118127296639
1.4927937475304813,6.712168867140523,-0.025005088515260104,0.36375859078120487,-1.8009270661832542
1.488302966433936,6.648134218954965,-0.024892479224131916,0.34773750016944677,-1.8092866031960602
1.4838337209802401,6.586975270895785,-0.024765803594712144,0.3318063671547923,-1.813935500923342
1.4793887797644805,6.5286754325711485,-0.024622432135950306,0.31596961423004394,-1.8145953455815105
1.474971400779591,6.473217257008997,-0.02445955658504216,0.30023233646053377,-1.810969218234942
1.4705853660796142,6.420582312514814,-0.02427416230359047,0.28460038014152106,-1.8027403816300602
1.4662350218014888,6.3707510397007105,-0.024062996342248306,0.26908042890407846,-1.789571047267607
1.4619253244116672,6.323702592429637,-0.023822530211322097,0.253680096330069,-1.7711013215780997
1.457661894250033,6.27941466169338,-0.023548916029058665,0.23840802296165428,-1.746948479944024
1.4534510777334615,6.2378632819913555,-0.023237934155069907,0.2232739737275209,-1.7167067897371058
1.4493000200017416,6.199022620753656,-0.022884929530707178,0.2082889289135678,-1.6799482083047097
1.4452167504154452,6.162864752986337,-0.022484732539252147,0.1934651573899543,-1.636224432572286
1.4412102842727998,6.129359425943736,-0.022031557934584407,0.17881625419448116,-1.585070991963899
1.4372907456035944,6.0984738227256585,-0.021518871723253594,0.16435711489527857,-1.5260143788718592
1.4334695182543524,6.070172339895784,-0.02093920993499015,0.1501038054366647,-1.458583626695369
1.4297594362404453,6.044416403316102,-0.02028392355286767,0.13607326767092437,-1.3823282941477455
1.4261750303792051,6.021164359209699,-0.0195428082386899,0.12228277795579763,-1.2968454857035943
1.4227328579218343,6.000371494421422,-0.018703552398761765,0.10874905302503765,-1.2018192344925138
1.4194519574442004,5.981990259882323,-0.017750897352726534,0.09548688629828446,-1.0970759902069345
1.4163544959935535,5.965970789458169,-0.016665340987793296,0.08250722952564218,-0.982659348141623
1.4134667147028543,5.952261809163396,-0.015421117797752848,0.0698147737495927,-0.858923999788592
1.4108203421752432,5.940811989277304,-0.013983021397927784,0.05740544720698021,-0.7266406020323104
1.4084547541008077,5.931571647831063,-0.012301290540244605,0.0452650133068172,-0.5870868638076983
1.4064203847856733,5.924494374138138,-0.010302812961248999,0.03337136105900938,-0.44207562697087005
1.4047845296802082,5.919537428726514,-0.007873354877252072,0.021705810181266993,-0.2938480174387952
1.4036431464724188,5.916657989021118,-0.004808680764853416,0.010287964323139536,-0.14476179756783053
1.4031583667944751,5.915792714956275,-0.0005777601011854447,-0.0006738080470954852,0.0031811357666183537
