x,y,v_x,v_y,omega
2.375,32.48,0.0,3.6923076923076925,-2.36734693877551
2.3744546904206207,31.823611587048433,-0.006058995326438493,3.600896896043002,-2.205251281766361
2.3729054899962985,31.18332029012746,-0.011154342721586854,3.51345084752336,-2.0598641535703206
2.3705125987809006,30.558436501055898,-0.015433337449498298,3.4297023643829156,-1.9289659129231604
2.3674118931509347,29.948316553033894,-0.019018947327899997,3.3494081691949056,-1.8106836702836966
2.363718909433323,29.352358660179462,-0.022014205090011302,3.272346195854322,-1.7034300460255947
2.359532114613186,28.769999308509085,-0.02450573735595547,3.198313267149862,-1.6058538972471608
2.3549356030097157,28.200710037080746,-0.026566613793710493,3.1271230820539224,-1.5168004604696048
2.350001328541128,27.643994557998884,-0.028258658079490274,3.0586044633001075,-1.4352789459540625
2.3447909595632797,27.099386172040795,-0.029634330563267308,2.992599825123089,-1.3604360622602016
2.3393574256538257,26.566445443231842,-0.03073826843066286,2.928963828309744,-1.2915342854237664
2.3337462119327133,26.044758101092846,-0.0316085506928121,2.8675621954568844,-1.2279339433957444
2.3279964456695748,25.533933143749422,-0.03227774111983797,2.808270663914444,-1.16907838323273
2.3221418113586685,25.03360111881479,-0.03277375122356258,2.7509740575815016,-1.114481640647054
2.3162113236345396,24.54341256207811,-0.03312055682231391,2.6955654617149523,-1.063718149752242
2.3102299819694805,24.063036576661688,-0.033338795011677344,2.6419454873564128,-1.0164141232249069
2.304219326740401,23.592159537540006,-0.03344626308920159,2.590021613995586,-0.9722403056701301
2.298197912749194,23.13048390821246,-0.03345833681310245,2.5397076007549066,-0.9309058602571949
2.2921817134499167,22.677727157945377,-0.03338832206775328,2.490922957768278,-0.8921531941196615
2.2861844668402145,22.233620769393237,-0.03324775137338272,2.443592470588813,-0.8557535642038304
2.2802179721054077,21.797909327610803,-0.03304663456891656,2.397645771438228,-0.8215033342059181
2.2742923445768994,21.37034968250704,-0.03279367130339811,2.353016951936901,-0.7892207765032575
2.2684162353150414,20.95071017769377,-0.03249643160613645,2.309644212654982,-0.7587433317520743
2.2625970205973913,20.538769939466796,-0.032161509701086256,2.2674695454225566,-0.7299252540218808
2.256840965744225,20.13431822034245,-0.03179465533409502,2.226438444847955,-0.7026355816890839
2.251153367010563,19.737153792172265,-0.0314008861510423,2.1864996459318844,-0.6767563843886657
2.2455386746908674,19.347084384384555,-0.030984584067794432,2.1476048850426546,-0.6521812445707533
2.240000600097261,18.963926163364775,-0.030549578083385664,2.1097086818438187,-0.6288139389829479
2.234542208667078,18.587503249394516,-0.03009921558531232,2.0727681400479434,-0.6065672909808674
2.2291660011166523,18.217647267929813,-0.02963642386386545,2.0367427651154237,-0.5853621691828588
2.223873984273895,17.854196932318654,-0.029163763277883403,2.001594297230754,-0.5651266118097656
2.218667732983089,17.496997655341136,-0.028683473286625908,1.967286558074994,-0.5457950592311497
2.213548444273709,17.14590118720753,-0.02819751237315327,1.9337853100761704,-0.5273076798916156
2.208516984814716,16.80076527787407,-0.02770759272676961,1.9010581269622782,-0.5096097770087602
2.2035739325314894,16.461453361736424,-0.027215210420189356,1.8690742745671263,-0.49265126529391756
2.1987196131400797,16.1278342629399,-0.026721671706585768,1.837804600949835,-0.4763862085102524
2.193954132249287,15.799781919705644,-0.02622811596888937,1.8072214349863465,-0.4607724100004168
2.1892774035922824,15.477175126215897,-0.02573553577560623,1.777298492677528,-0.4457710494293159
2.1846891738736383,15.159897290730388,-0.025244794431548728,1.7480107904947948,-0.4313463599304747
2.1801890446527428,14.847836208722185,-0.024756641356182503,1.7193345651519125,-0.4174653406450268
2.1757764916289255,14.540883849925848,-0.02427172557511814,1.6912471992518168,-0.4040975003235153
2.171450881645844,14.238936158285206,-0.02379060757023195,1.663727152310859,-0.39121462824160697
2.1672114876915374,13.94189286387327,-0.02331376969984143,1.6367538967106345,-0.37879058917729563
2.1630575021351315,13.649657305933996,-0.02284162537133718,1.6103078581701902,-0.36680113962240113
2.158988048410561,13.36213626626542,-0.02237452712389348,1.58437036036953,-0.35522376276611484
2.1550021913312185,13.079239812227108,-0.021912773757685015,1.55892357338948,-0.3440375201021977
2.1510989461965178,12.800881148712332,-0.021456616627876676,1.5339504656635874,-0.3332229177818788
2.1472772868314633,12.526976478477739,-0.021006265206065435,1.5094347591652224,-0.3227617860679877
2.1435361526830565,12.25744487027087,-0.020561891998451223,1.485360887577769,-0.312637170447812
2.1398767428901246,11.992208379210421,-0.020098216811907467,1.461711235316111,-0.3021682582383062
2.1362998909795294,11.731191669933818,-0.019644582194704645,1.4384744233128082,-0.2921379405998025
2.132803800685558,11.47432166110378,-0.019200865516090408,1.4156367859098562,-0.28252295567767655
2.12938669920925,11.221527679837308,-0.018766928665110517,1.3931852281620547,-0.2733015078639604
2.1260468397688688,10.972741361682804,-0.018342620672457222,1.3711071957768888,-0.26445316058838153
2.122782503707923,10.727896555839177,-0.0179277800047182,1.349390646930064,-0.25595873799732466
2.1195920022161583,10.486929235291576,-0.01752223657044286,1.328024025821049,-0.24780023469853021
2.116473677712285,10.249777411561713,-0.01712581347259267,1.3069962378440938,-0.2399607328331308
2.1134259049313577,10.016381053792319,-0.016738328537714172,1.2862966262602948,-0.23242432581110598
2.1104470917545997,9.786682011905,-0.01635959564848399,1.265914950265456,-0.22517604811252223
2.1075356798149616,9.560623943588993,-0.015989425903052017,1.2458413643568613,-0.21820181061599486
2.1046901449077255,9.338152244895003,-0.01562762862179082,1.2260663989096923,-0.2114883409685076
2.101908997232001,9.119213984223862,-0.01527401221959242,1.2065809418807745,-0.20502312855780339
2.0991907814858655,8.903757839513862,-0.014928384959692526,1.1873762215636832,-0.19879437369065975
2.0965340768352134,8.691734038443876,-0.014590555603107144,1.1684437903250389,-0.19279094061805455
2.0939374967739846,8.48309430148148,-0.014260333966103177,1.1497755092571273,-0.18700231408201473
2.0913996888913355,8.277791787616522,-0.013937531396663556,1.1313635336868382,-0.18141855908925617
2.0889193345594697,8.075781042631025,-0.01362196117962296,1.1132002994853647,-0.17603028364395507
2.086495148554192,7.8770179497658965,-0.013313438879020052,1.0952785101271927,-0.1708286041964802
2.0841258786188104,7.681459682653891,-0.013011782625217018,1.077591124450649,-0.16580511358695718
2.0818103049807295,7.489064660396519,-0.0127168133534605,1.060131345075727,-0.16095185128239928
2.0795472398289374,7.299792504670279,-0.012428354999784714,1.0428926074380682,-0.15626127572405352
2.077335526759604,7.113603998754773,-0.01214623465947554,1.0258685694008922,-0.15172623861778603
2.0751740401961074,6.930461048381851,-0.011870282712711922,1.009053101409349,-0.14733996101494784
2.073061684789031,6.7503266443111265,-0.011600332921468899,0.9924402771542372,-0.14309601104438366
2.0709996442656107,6.57338176934374,-0.01131122844986639,0.9736138891500751,-0.18659084373209958
2.0689860896913452,6.399816659519939,-0.011061600153082248,0.9548873311143831,-0.23113548452136023
2.0670140309586973,6.229613566288904,-0.010850163543008131,0.9362581492304354,-0.27663455899705
2.0650767106572587,6.062755174456935,-0.010675617584087783,0.9177239822358991,-0.3229938317249402
2.063167606804938,5.899224585721445,-0.010536647441700808,0.899282559269543,-0.37011999960389397
2.0612804351126197,5.739005302563488,-0.010431926917385813,0.8809316980411025,-0.41792048503554
2.0594091508371726,5.582081212440343,-0.010360120587583059,0.8626693033271737,-0.4663032279849186
2.057547950274881,5.428436572219013,-0.010319885660102873,0.8444933657987067,-0.5151764759711792
2.055691271945065,5.278055992790158,-0.010309873560075747,0.8264019611885639,-0.5644485709845771
2.0538337975117362,5.13092442380022,-0.01032873125468803,0.808393249810758,-0.614027732274081
2.0519704524896967,4.987027138437075,-0.01037510232352704,0.7904654764464281,-0.663821833888071
2.050096406780485,4.846349718201509,-0.01044762777882323,0.7726169706154223,-0.7137381757779482
2.048207075083038,4.708878037593028,-0.0105449466372544,0.7548461472565887,-0.7636832471899365
2.046298117223884,4.574598248633919,-0.0106656962422351,0.7371515078446174,-0.8135624809727359
2.0443654384521386,4.443496765150009,-0.010808512332717264,0.7195316419766227,-0.8632799973166266
2.0424051897455646,4.315560246720018,-0.01097202885143601,0.7019852294676974,-0.9127383353116236
2.0404137681755374,4.190775582197787,-0.011154877482203422,0.6845110430015495,-0.9618381705666573
2.0383878173809378,4.069129872702533,-0.01135568690223351,0.6671079513901823,-1.0104780169666967
2.0363242282039002,3.9506104139619147,-0.011573081731518225,0.6497749235055685,-1.0585539104582538
2.034220139543942,3.83520467788032,-0.011805681156904856,0.6325110329566004,-1.1059590725437447
2.0320729394914894,3.7229002931905413,-0.012052097203678901,0.6153154635964866,-1.1525835509296016
2.0298802668071736,3.6136850250305024,-0.012310932622053353,0.598187515959495,-1.198313834509732
2.0276400128196967,3.5075467532673876,-0.012580778349914237,0.5811266147417942,-1.2430324395730128
2.0253503238226314,3.40447344936927,-0.012860210506369193,0.5641323174594948,-1.2866174637994816
2.0230096040593906,3.304453151598473,-0.013147786862971904,0.547204324438234,-1.3289421042539922
2.0206165193959498,3.207473938270841,-0.01344204273081365,0.530342490313234,-1.369874135198852
2.018170001792912,3.113523898790401,-0.013741486191826842,0.513546837247224,-1.4092753411308165
2.0156692547024173,3.0225911021285654,-0.014044592591451315,0.4968175701064974,-1.4470009000083697
2.013113759531451,2.9346635623703854,-0.014349798197059472,0.4801550938732879,-1.4828987111826775
2.0105032833316385,2.8497292008963306,-0.01465549291196917,0.46356003361620085,-1.5168086620971968
2.007837887896924,2.7677758047057566,-0.014960011918192717,0.44703325739019284,-1.5485618274041986
2.005117940475115,2.6887909803161776,-0.01526162610190935,0.430575902494012,-1.5779795938043304
2.0023441263275235,2.612762102589855,-0.015558531093549346,0.414189405576259,-1.6048727037131567
1.9995174634035164,2.5396762577444036,-0.01584883472875274,0.39787553715099094,-1.6290402108948328
1.9966393194343406,2.4695201796965165,-0.016130542706533933,0.3816364411588713,-1.6502683416247177
1.993711431794042,2.4022801787663326,-0.016401542185671872,0.3654746802876136,-1.6683292559681993
1.9907359305257006,2.3379420616347737,-0.016659583018121142,0.3493932878408374,-1.6829797057157778
1.9877153649900543,2.2764910412983284,-0.016902256266837185,0.3333958270085664,-1.6939595888729986
1.9846527346628153,2.2179116356088144,-0.017126969591374722,0.3174864584304619,-1.7009904060756718
1.9815515246893627,2.162187552826385,-0.01733091900254394,0.3016700169298811,-1.7037736329330309
1.9784157469050565,2.109301562465305,-0.017511056378636782,0.285952098193248,-1.7019890356450513
1.9752499871522242,2.0592353495958555,-0.017664051986164567,0.2703391559117533,-1.695292977595483
1.9720594598803751,2.0119693507185836,-0.017786251034382243,0.2548386093912529,-1.6833167954037884
1.9688500712194232,1.9674825694089897,-0.01787362297619425,0.23945896071535577,-1.665665369195212
1.96562849199112,1.925752370236932,-0.017921701782730837,0.22420991897417078,-1.6419160811274842
1.9624022425118555,1.88675425014641,-0.017925514653542543,0.20910252647608346,-1.6116184595680263
1.9591797916080482,1.8504615877721946,-0.017879495388759777,0.19414927768186752,-1.5742949599191975
1.9559706731274682,1.8168453734297323,-0.01777737661768377,0.17936421501214764,-1.5294435601407175
1.9527856245797355,1.7858739262831733,-0.017612051690458864,0.164762975505188,-1.47654318171674
1.9496367547073352,1.7575126112591875,-0.0173753913362106,0.15036274698353794,-1.4150634271099032
1.94653775033886,1.731723577718025,-0.01705799053573754,0.13618207014049713,-1.3444808002869402
1.9435041387688066,1.7084655560813289,-0.01664880468707536,0.12224039248946766,-1.264304483143082
1.9405536317643834,1.6876937689068647,-0.016134606473181507,0.10855724278233785,-1.1741158480523874
1.9377065938231184,1.6693600396813828,-0.01549914842976493,0.09515085972302131,-1.073626968456372
1.934986704939726,1.653413212742521,-0.014721839163482065,0.08203610626432392,-0.9627637281422033
1.932421934178924,1.6398000187930357,-0.013775613734320177,0.06922160428550794,-0.8417769643540407
1.9300460174798333,1.6284664993526796,-0.012623460700020895,0.05670638949621605,-0.7113768482742759
1.9279007684529585,1.6193599684489186,-0.011212639598585868,0.044477287212233485,-0.5728659569368676
1.926039826205587,1.6124311077453903,-0.009464496483322832,0.032510053938087285,-0.42821140774414024
1.9245351915705418,1.6076349139122215,-0.007253666128287805,0.020780988652674,-0.279955097001564
1.9234908693728203,1.6049269686026122,-0.004349913846395654,0.00930729256519629,-0.13084775932314335
1.9230890020008262,1.6042389509263266,-0.00011527917576249942,-0.0016626517175973386,0.01674818272838985
