x,y,v_x,v_y,omega
2.375,32.48,0.0,2.871794871794872,-3.4693877551020407
2.374331900277941,31.940250011343412,-0.00703262865325661,2.8097839561691607,-3.2700402793708396
2.372417689938052,31.412069809284194,-0.013116953871885781,2.7500076444542176,-3.0876355205837998
2.369426012980206,30.895047184624815,-0.01837438252649581,2.6923357730129043,-2.9202909120027867
2.365504046365087,30.388793674606692,-0.02290947658002095,2.6366485429673423,-2.766372187199091
2.360780456177028,29.89294269679552,-0.02681252539954645,2.5828354339923822,-2.624456044715336
2.3553679060550845,29.407147875510955,-0.0301616864103815,2.5307942637398813,-2.493299082864637
2.3493651923709664,28.931081535427918,-0.0330247734224437,2.4804303687131246,-2.3718118429704638
2.3428590670725065,28.464433341117733,-0.03546075603502872,2.4316558871835547,-2.259037034892414
2.3359257982459303,28.006909064633554,-0.03752102108682431,2.384389128439379,-2.1541312022604395
2.3286325096959835,27.558229465955,-0.03925043733366746,2.338554015545386,-2.056349228869106
2.3210383337540788,27.118129273326428,-0.04068825679164693,2.294079591071193,-1.9650312013814577
2.3131954057572646,26.686356252354393,-0.041868880016924875,2.2508995770554683,-1.879591233761878
2.305149723928152,26.262670354251362,-0.04282250765794071,2.2089519819238435,-1.7995079309108888
2.2969418945193487,25.846842934884982,-0.04357569664525206,2.168178748248577,-1.7243162267772205
2.288607778901369,25.438656037363366,-0.04415183617558756,2.128525436189486,-1.65360037881147
2.2801790566406623,25.03790173179309,-0.04457155604238096,2.0899409382344216,-1.5869879383439183
2.2716837164310784,24.6443815066184,-0.04485307774271373,2.052377221499184,-1.524144547134317
2.263146484925351,24.257905706610003,-0.04501251705441635,2.0157890943787025,-1.4647694353721414
2.254589201996772,23.878293013139462,-0.045064145351679304,1.980133994784888,-1.4085915169149208
2.246031149691801,23.505369962864933,-0.045020615753273874,1.9453717975785394,-1.355365994417379
2.2374893410686765,23.138970501378928,-0.04489315922698605,1.9114646391162877,-1.304871400920709
2.228978774220031,22.778935568738454,-0.04469175496928519,1.8783767570992227,-1.2569070159928202
2.2205126560204755,22.425112714121106,-0.044425278710244764,1.8460743441360075,-1.2112906040793316
2.2121025994995933,22.077355737133654,-0.04410163203588376,1.8145254136266287,-1.1678564306965595
2.2037587981975855,21.735524353548925,-0.04372785535367117,1.7836996767389377,-1.1264535187579139
2.1954901803990734,21.39948388346637,-0.043310226735931115,1.753568429393219,-1.0869441129054156
2.187304545747168,21.0691049600861,-0.042854348547281866,1.7241044482938097,-1.0492023244062987
2.1792086864040625,20.744263257458535,-0.04236522348541002,1.6952818951542596,-1.0131129331238338
2.17120849463703,20.424839235725052,-0.04184732143071815,1.6670762283561253,-0.9785703264065936
2.1633090584623704,20.110717902501708,-0.04130463830254305,1.6394641213632748,-0.9454775575637909
2.1555147467682043,19.8017885891801,-0.04074074795183445,1.6124233872852507,-0.9137455089902823
2.147829285154913,19.49794474102861,-0.040158847977550094,1.5859329090462093,-0.8832921470427526
2.1402558235749547,19.199083720075432,-0.039561800232535554,1.5599725746714395,-0.8540418575058898
2.1327969967181715,18.905106619842662,-0.03895216668097465,1.5345232172524699,-0.8259248519716011
2.125454977971299,18.615918091080136,-0.038332241180837424,1.5095665591951515,-0.798876636725064
2.1182315276786836,18.331426177719205,-0.037704077688797494,1.485085160393599,-0.7728375368216076
2.111133306857731,18.051543353462797,-0.0370140362159684,1.461049831779112,-0.7460034956502655
2.1041658417732463,17.776185117349236,-0.03632770151544915,1.4374579167846724,-0.7203460976717795
2.097328334186812,17.505268669444618,-0.035646062552282344,1.414294166421835,-0.6958002115683393
2.0906198106605847,17.238714043768276,-0.03496997456590016,1.391543998592302,-0.6723049918816247
2.084039146571329,16.976443985076287,-0.03430017374205427,1.369193461323387,-0.6498035520819456
2.0775850874889246,16.718383832401237,-0.033637290283252755,1.3472291984139877,-0.62824266590365
2.071256268206344,16.464461408907724,-0.03298186005970331,1.3256384173072004,-0.6075724942205242
2.0650512296755843,16.21460691765648,-0.03233433500092591,1.304408859021684,-0.5877463350245601
2.058968434075428,15.968752842900528,-0.031695092369138256,1.2835287699883104,-0.5687203943275555
2.0530062782116683,15.726833856564731,-0.03106444303885911,1.262986875651659,-0.5504535760317528
2.04716310542818,15.488786729585591,-0.03044263889259819,1.2427723557077017,-0.5329072890167436
2.0414372161875587,15.254550247811686,-0.029829879429730474,1.2228748208597038,-0.5160452698683294
2.0358268774626613,15.024065132186532,-0.029226317674451736,1.2032842909840367,-0.49983341983367396
2.030330331064995,14.79727396295544,-0.02863206545887599,1.183991174606397,-0.4842396547282829
2.0249458010222767,14.574121107656126,-0.02804719814868881,1.1649862495969094,-0.46923376664618993
2.0196715001053906,14.354552652669433,-0.027471758871161024,1.1462606449998602,-0.45478729643700694
2.0145056355942614,14.138516338122006,-0.02690576229862364,1.1278058239204287,-0.4408734160138073
2.0094464143626056,13.925961495946868,-0.02634919803459295,1.109613567396823,-0.4274668196455222
2.0044920473530903,13.716838990920955,-0.025802033644516113,1.0916759591917364,-0.4145436234678632
1.999640753506854,13.511101164510745,-0.02526421736849605,1.0739853714420733,-0.402081272518794
1.9948907632046657,13.30870178136825,-0.02473568054927596,1.0565344511105026,-0.39005845466919625
1.990240321270995,13.109595978330024,-0.02421633980515281,1.039316107186608,-0.37845502087743205
1.985687689586948,12.913740215781317,-0.023706098974289755,1.0223234985892695,-0.36725191124871337
1.9812311493532548,12.721092231256417,-0.023204850854059808,1.0055500227254524,-0.35643108642719323
1.9768690030402483,12.531610995154434,-0.02271247875653416,0.9889893046638283,-0.34597546389105066
1.9726034472740812,12.345461029287794,-0.022188108255752417,0.9704840202481787,-0.3785588435683086
1.9684337352450627,12.162816920706394,-0.021703597312861367,0.9520855437665545,-0.4125333162351054
1.964352396084692,11.983658638167885,-0.02125786753314781,0.9337911145335266,-0.4477941622514187
1.9603521673887165,11.807966664772117,-0.020849802950803263,0.9155980791061368,-0.48423850673035673
1.956426001936896,11.635721977893432,-0.020478254436781702,0.8975038880379292,-0.521765092095368
1.9525670736155005,11.466906029694805,-0.020142043683171542,0.8795060930002535,-0.5602740532500973
1.9487687826204507,11.301500728154423,-0.01983996679103666,0.861602344266938,-0.599666694399858
1.945024760014157,11.139488418535759,-0.019570797485739002,0.8437903885611195,-0.6398452665504577
1.9413288717048247,10.9808518652322,-0.019333289980916574,0.8260680672658206,-0.6807127446891497
1.9376752219132323,10.82557423391668,-0.019126181509530053,0.808433315002834,-0.7221726036233813
1.934058156188747,10.673639073925585,-0.01894819453768343,0.7908841585876321,-0.7641285914152751
1.930472264033614,10.525030300804474,-0.018798038674243126,0.7734187163714334,-0.8064844993028035
1.926912381192334,10.379732178940586,-0.01867441228659846,0.7560351979852703,-0.8491439269417157
1.9233735916612384,10.237729304204013,-0.01857600383019632,0.7387319045049766,-0.8920100417346243
1.9198512294721821,10.09900658651529,-0.01850149289671368,0.7215072290605281,-0.9349853309343503
1.9163408803036215,9.963549232252312,-0.018449550982871748,0.7043596579181894,-0.9779713451166112
1.9128383829722524,9.831342726403477,-0.018418841978909025,0.6872877720695566,-1.0208684315112695
1.909339830858861,9.702372814366917,-0.01840802237258058,0.6702902493679306,-1.0635754555603754
1.9058415733231522,9.576625483287298,-0.018415741161194262,0.6533658672596433,-1.1059895089337675
1.902340217164083,9.454086942811852,-0.01844063946058599,0.6365135061661241,-1.1480056020776013
1.8988326281847052,9.334743605135799,-0.018481349796023464,0.6197321535818088,-1.1895163391963872
1.8953159329237863,9.218582064193981,-0.01853649505575319,0.6030209089636405,-1.2304115733734733
1.8917875206205854,9.105589073839923,-0.01860468708320475,0.5863789895001205,-1.2705780393170907
1.8882450454842077,8.995751524835534,-0.018684524878665267,0.5698057368618726,-1.3098989609780374
1.8846864293450665,8.889056420453734,-0.01877459237545346,0.5533006250517908,-1.348253631020243
1.881109864773228,8.785490850472137,-0.018873455749161678,0.5368632694913524,-1.385516958837113
1.8775138187569853,8.685041963307867,-0.018979660211287937,0.520493437500971,-1.4215589834962281
1.8738970370450228,8.587696936011387,-0.019091726230423666,0.5041910603567168,-1.4562443476662166
1.870258549267212,8.493442941799788,-0.019208145114952085,0.4879562471337844,-1.4894317282388974
1.8665976749626179,8.40226711476706,-0.019327373880777394,0.471789300579155,-1.5209732190179954
1.8629140306589482,8.314156511359261,-0.019447829315744722,0.45569073529241744,-1.5507136605201497
1.8592075381657587,8.229098068145657,-0.019567881138881662,0.4396612985350129,-1.5784899116512594
1.855478434264541,8.147078555351555,-0.01968584413709303,0.4237019940344708,-1.6041300578217739
1.8517272820028285,8.068084525544148,-0.019799969144090004,0.4078141092014187,-1.6274525500084223
1.8479549838271048,7.992102256777905,-0.01990843270563454,0.39199924623272936,-1.6482652694458901
1.8441627968212284,7.919117689410687,-0.020009325250957558,0.37625935763273294,-1.6663645131704463
1.8403523503540424,7.849116355694964,-0.020100637561527277,0.3605967867432968,-1.6815338967292364
1.8365256664827814,7.782083301131191,-0.020180245293850856,0.3450143139279833,-1.6935431722923862
1.8326851835091507,7.718002996443783,-0.020245891270684005,0.3295152090973761,-1.7021469635665756
1.82883378314426,7.656859238908044,-0.02029516520184813,0.3141032912788343,-1.7070834239013968
1.8249748218095132,7.598635041625744,-0.02032548042706674,0.29878299590327284,-1.7080728316697373
1.8211121666867167,7.543312509229715,-0.02033404718131726,0.2835594503707296,-1.704816148656933
1.817250237237664,7.490872698414222,-0.020317841756080087,0.2684385582134053,-1.6969935846635837
1.8133940530497825,7.441295461670649,-0.020273570747936377,0.2534270917189283,-1.6842632375268465
1.80954928904361,7.3945592727093725,-0.02019762931703728,0.23853279208398748,-1.6662599162648477
1.805722339321452,7.350641032350584,-0.020086051968836064,0.22376447485063525,-1.642594311844397
1.8019203912796211,7.309515854295984,-0.01993445373464581,0.20913213625042187,-1.6128527635792917
1.7981515121066725,7.271156831343458,-0.019737958612182083,0.19464705272356114,-1.5765979914798072
1.7944247505421131,7.235534784570078,-0.0194911104884437,0.18032186068043493,-1.533371343053836
1.7907502579323131,7.202618001216013,-0.01918775908839877,0.1661705956781349,-1.4826973603763534
1.7871394344564895,7.172371972070589,-0.018820909078165672,0.15220865848423157,-1.42409183948953
1.7836051093455008,7.1447591469343905,-0.018382513142766847,0.1384526587389298,-1.3570750626914463
1.7801617687106668,7.119738738256164,-0.017863177750224134,0.12492006418975955,-1.2811925597847125
1.7768258524436875,7.097266619379205,-0.017251730323241538,0.11162855556768397,-1.196046578947521
1.7736161545022902,7.077295385397669,-0.016534563796731114,0.09859496002743669,-1.1013422778581268
1.7705543818986236,7.059774669516852,-0.015694621505023022,0.08583362819170647,-0.996953031434081
1.7676659618463322,7.044651828045112,-0.014709800098043475,0.07335417677396094,-0.8830080989197495
1.764981242026394,7.031873101297165,-0.013550408532885203,0.06115873636231507,-0.7600009683235232
1.7625373217790834,7.021385278948053,-0.012175067754595922,0.04923939362832922,-0.6289043907552043
1.7603809247752822,7.013137659464146,-0.010523848074889637,0.037577653570704576,-0.49125496185949913
1.7585731301963707,7.00708354419741,-0.008505568545231507,0.02614987555284116,-0.349138820113877
1.7571981104649426,7.003179283489214,-0.005968323364537922,0.014947605586056234,-0.20498903947122857
1.7563845712676867,7.001374752732168,-0.002595247132891856,0.004047455014436804,-0.06113153285879988
