x,y,v_x,v_y,omega
2.375,32.48,0.0,2.871794871794872,-5.551020408163265
2.374060000895966,31.96847279201026,-0.0104444344892639,2.8118407725355485,-5.246779804542609
2.3713606339160367,31.467548990832867,-0.019548531954400157,2.7539792405465966,-4.967122589133178
2.3671284723291834,30.97686294969646,-0.027475485677299866,2.6980878831912283,-4.709435846273545
2.3615626654785564,30.496070131144123,-0.03436681266299953,2.644054545168108,-4.4714386932277
2.3548385520501522,30.024845370204996,-0.04034555876371719,2.591776131933287,-4.251133728173407
2.347110744055087,29.56288133351978,-0.04551897451478361,2.54115760901355,-4.04676650277619
2.338515768004761,29.109887145647996,-0.04998075937772907,2.4921111451173887,-3.8567915356234863
2.329174333985628,28.66558715895362,-0.053812951945966706,2.4445553737089867,-3.679843687468772
2.319193290777127,28.229719847559785,-0.057087528148489594,2.398414752889185,-3.5147139548963247
2.308667315076278,27.80203680913141,-0.05986775741649733,2.3536190074261216,-3.360328922780599
2.297680374750849,27.382301860873028,-0.06220935731049293,2.3101026398891977,-3.215733260287412
2.286306999426936,26.970290218257986,-0.06416147962187396,2.2678045002779714,-3.0800747593810605
2.274613386310488,26.565787746741428,-0.0657675550053289,2.2266674054615283,-2.9525915057451595
2.2626583647018355,26.168590278135362,-0.06706601842414354,2.1866378012725702,-2.832600844872619
2.2504942389979226,25.77850298450175,-0.06809093384155537,2.147665461323114,-2.7194898647590318
2.2381675269397983,25.395339803399313,-0.06887253347093773,2.1097032175928416,-2.6127071641463515
2.225719607335474,25.018922909138517,-0.06943768435488444,2.0727067186382357,-2.5117557139229683
2.213187289377011,24.649082225388266,-0.06981029296137521,2.0366342119201026,-2.4161866508858387
2.200603313900911,24.28565497506031,-0.07001165677306595,2.0014463472793866,-2.325593869010639
2.1879967954524653,23.92848526389248,-0.07006077043188909,1.9671059990298707,-2.239609294756824
2.1753936127589752,23.577423694574797,-0.06997459282910938,1.9335781044999198,-2.157898750624874
2.162816754154324,23.23232700862556,-0.06976828055589972,1.9008295171582843,-2.0801583258729783
2.1502866235958953,22.893057753537185,-0.06945539231553585,1.8688288727125608,-2.006111185540738
2.1378213121479965,22.559483972982648,-0.06904806821667275,1.8375464667822863,-1.9355047591600587
2.1254368391519796,22.231478918108635,-0.068557187294628,1.8069541429290026,-1.868108259114135
2.113147366744183,21.90892077814693,-0.067992506125328,1.777025189978813,-1.8037104858224258
2.1009653909038724,21.591692428755515,-0.06736278098924034,1.7477342477035809,-1.7421178830167166
2.0889019118020484,21.2796811966587,-0.06667587569769136,1.7190572200388075,-1.68315281152164
2.0769665858681505,20.97277863929509,-0.06593885690117386,1.690971195112425,-1.6266520143185863
2.065167861686534,20.67088033830521,-0.06515807845012306,1.6634543714417738,-1.5724652493830573
2.0535131015710655,20.373885705799935,-0.06433925616619177,1.6364859897279556,-1.5204540699479694
2.042008690438063,20.081697802447884,-0.0634875342004963,1.610046269739284,-1.4704907345465559
2.030660133400035,19.79422316650664,-0.06260754399982059,1.5841163518300774,-1.4224572315008837
2.0194721433309,19.511371652999948,-0.061703456768346744,1.5586782426887444,-1.3762444045058033
2.008448719503949,19.233056282312372,-0.060779030197773955,1.5337147649509846,-1.3317511676636982
1.9975932182735596,18.959193097535213,-0.05983765013988612,1.5092095103507577,-1.2888837997946814
1.9869084166580362,18.68970102995337,-0.05888236781037389,1.4851467961141946,-1.2475553091151552
1.976401296409815,18.424504568006995,-0.057863412725418124,1.4614805588455415,-1.2057212587294863
1.9660773181013094,18.163530692311376,-0.05684745736908775,1.438229171105761,-1.1656477262724416
1.9559358035519243,17.906705975187265,-0.05583603762408036,1.4153787969399063,-1.127240896048474
1.945975815226681,17.653959426727575,-0.05483049932306748,1.3929161859455441,-1.0904128950612635
1.9361961886762633,17.405222392229376,-0.05383201790379632,1.370828641812244,-1.0550813562019696
1.9265955616223658,17.160428455106896,-0.0528416160283977,1.3491039928819648,-1.0211690178578308
1.9171724000349801,16.91951334493549,-0.051860179386998696,1.327730564578142,-0.9886033565500026
1.9079250215108985,16.682414850302656,-0.05088847088057452,1.3066971535644547,-0.9573162495578041
1.8988516162296192,16.4490727361663,-0.04992714335586378,1.285993003506132,-0.9272436647957256
1.8899502657334766,16.219428665442184,-0.048976751045720295,1.2656077823173908,-0.898325375484438
1.8812189597527587,15.99342612456267,-0.0480377598511448,1.245531560788293,-0.8705046974017258
1.8726556112734034,15.771010352767345,-0.04711055658613654,1.2257547924931016,-0.8437282467173572
1.8642580700242655,15.552128274902849,-0.04619545729317404,1.2062682948901782,-0.8179457166105367
1.8560241345425976,15.336728437524968,-0.045292714725356065,1.1870632315307008,-0.7931096710424782
1.8479515629600423,15.1247609481102,-0.04440252508081587,1.1681310953000525,-0.7691753542122097
1.840038082636847,14.91617741719724,-0.043525034065798704,1.1494636926217163,-0.7461005143630368
1.8322813987590094,14.71093090329098,-0.0426603423546182,1.131053128558965,-0.7238452407320165
1.8246792020014226,14.508975860372757,-0.041808510507456854,1.112891792754607,-0.7023718125469218
1.8172291753497032,14.31026808787102,-0.040969563400537395,1.0949723461535912,-0.681644559075938
1.8099290001640824,14.114764682956029,-0.04014349421747067,1.0772877084574262,-0.6616297298259662
1.8027763615604155,13.922423995031174,-0.039330268045496455,1.059831046263168,-0.6422953740670326
1.7957689531758985,13.7332055823016,-0.03852982511580308,1.0425957618432093,-0.6236112289338682
1.7889044813803996,13.547070170308434,-0.03774208372307485,1.0255754825252994,-0.6055486154221118
1.7821806689882993,13.363979612323995,-0.03696694285581666,1.008764050635143,-0.5880803416565428
1.7755952585203545,13.183896851509836,-0.036204284565792395,0.9921555139666284,-0.5711806128629586
1.7691521333214757,13.007012097051092,-0.03538599542175063,0.973230646686083,-0.6047821167523482
1.7628519966420684,12.833524374694033,-0.03461552323833027,0.9544107128367897,-0.6396578105604531
1.7566863822300962,12.663415032042575,-0.03389130356135817,0.9356930944016418,-0.6757009310709801
1.750647106683885,12.496665878430857,-0.03321175806321295,0.9170752790618828,-0.7128062751166524
1.7447262716931662,12.333259166136706,-0.03257529738921837,0.8985548575397783,-0.7508699652468169
1.7389162657974566,12.173177572039318,-0.03198032367422004,0.8801295213200907,-0.7897892168335563
1.73320976571941,12.016404179652923,-0.03142523274851926,0.8617970607509446,-0.8294621055915425
1.72759973732756,11.862922461467846,-0.030908416049816773,0.8435553635276826,-0.8697873344651191
1.7220794362800949,11.71271626152937,-0.030428262255350405,0.8254024135664976,-0.9106639988059603
1.716642408398976,11.565769778183359,-0.02998315864597068,0.807336290278044,-0.9519913487256622
1.7112824898218069,11.422067546915393,-0.02957149221146436,0.7893551682549172,-0.993668547459223
1.7059938069774168,11.281594423207267,-0.029191650503982133,0.7714573173909182,-1.0355944245169304
1.7007707764301048,11.144335565331183,-0.028842022243927665,0.7536411034544432,-1.0776672223329635
1.695608104636943,11.010276416997392,-0.02852099768009288,0.7359049891432397,-1.1197843350382166
1.6905007876624512,10.879402689765712,-0.02822696870314878,0.7182475356532211,-1.1618420378915697
1.6854441108953768,10.75170034512491,-0.02795832870878999,0.7006674048001547,-1.2037352057970836
1.6804336488132392,10.627155576136303,-0.027713472203849045,0.6831633617399065,-1.245357019213377
1.6754652648417974,10.505754788529046,-0.02749079414550422,0.665734278340709,-1.2865986556246984
1.6705351113586786,10.387484581124106,-0.027288689000259554,0.6483791372697202,-1.3273489645899161
1.6656396298931486,10.272331725451878,-0.027105549505629357,0.6310970368661674,-1.367494124214916
1.6607755515774398,10.160283144414294,-0.026939765113358626,0.6138871968847688,-1.4069172767049998
1.6559398979092728,10.05132588982611,-0.026789720088494937,0.5967489652061475,-1.4454981404464846
1.6511299818902818,9.945447118651234,-0.026653791233628422,0.579681825625808,-1.4831125958410667
1.6463434096110703,9.84263406772839,-0.026530345202057066,0.5626854068502186,-1.5196322418738335
1.6415780823607167,9.742874026755558,-0.0264177353574259,0.5457594928479139,-1.5549239201386216
1.6368321993468098,9.646154309273943,-0.02631429813042856,0.5289040347256123,-1.5888492027773862
1.6321042611216916,9.552462221359438,-0.026218348815328616,0.5121191643244596,-1.6212638405209843
1.6273930738216928,9.461785027691839,-0.026128176740214778,0.49540520975995656,-1.6520171667592636
1.6226977543389343,9.374109914628935,-0.02604203973487904,0.47876271316119184,-1.6809514533368284
1.618017736560004,9.289423949863352,-0.02595815780879153,0.46219245090084554,-1.7079012135945404
1.6133527788227406,9.20771403818404,-0.025874705938578754,0.445695456647068,-1.732692448095759
1.6087029727618267,9.12896687280077,-0.025789805849354978,0.42927304761147606,-1.7551418285489446
1.6040687537362763,9.053168881618536,-0.025701516656760178,0.4129268544133622,-1.7750558157492167
1.5994509130577272,8.980306167768884,-0.025607824216006037,0.39665885502720555,-1.7922297080329859
1.5948506122683088,8.910364443617105,-0.025506628999753773,0.38047141332589446,-1.8064466179479128
1.5902693997516026,8.843328957368389,-0.025395732296982287,0.3643673227709693,-1.8174763768384212
1.5857092300009292,8.779184411294665,-0.025272820488277118,0.3483498558259675,-1.8250743701990877
1.5811724859174139,8.717914870500266,-0.02513544710633657,0.332422819667361,-1.8289803114786305
1.576662004568183,8.659503661045356,-0.02498101232956457,0.3165906187205071,-1.8289169692808531
1.5721811069058136,8.603933256162172,-0.024806739474538025,0.30085832442598653,-1.824588873693968
1.5677336320385917,8.551185149247875,-0.02460964793903884,0.2852317523995322,-1.8156810433559736
1.5633239767545293,8.501239712327305,-0.02438652188387789,0.2697175467179321,-1.8018577980956008
1.5589571411518923,8.454076038792042,-0.02413387370097667,0.25432327034055136,-1.7827617558388755
1.554638781433137,8.40967176950575,-0.023847900951858212,0.2390574995071538,-1.7580131616284898
1.5503752712063665,8.368002901920256,-0.023524434901146196,0.22392991810944918,-1.7272097677606624
1.546173773054851,8.329043582823815,-0.02315887789347158,0.20895140518433591,-1.6899275866534067
1.5420423227555418,8.292765886965778,-0.02274612543218527,0.19413410434939854,-1.6457229852071278
1.5379899294733934,8.259139586394767,-0.02228046659168657,0.17949145755073403,-1.594136798606037
1.5340266967276888,8.228131919366572,-0.021755452805033,0.16503817609588115,-1.5347014346918972
1.5301639712418171,8.199707373736032,-0.02116371926020478,0.15079010868790305,-1.4669523412645125
1.5264145304715933,8.173827508598123,-0.020496733742285042,0.13676394839999767,-1.3904457354642035
1.5227928254990397,8.150450850353916,-0.01974443261941854,0.12297669875786518,-1.3047851346600325
1.5193153054102018,8.129532915713071,-0.018894679478782723,0.10944479725151118,-1.2096598859117895
1.516000864322292,8.111026433334583,-0.01793244372021517,0.09618278473169799,-1.1048992711179828
1.5128714760801514,8.094881853063917,-0.016838536748013513,0.08320144049793933,-0.9905451590520856
1.5099531193165205,8.081048234128478,-0.015587649514550127,0.07050543656250087,-0.8669431405510938
1.507277155960356,8.069474562872752,-0.014145276665057143,0.058090910723348904,-0.7348441993876085
1.5048824302790844,8.06011141347301,-0.012462786460182897,0.04594408260713719,-0.5954934483342713
1.502818570277476,8.052912543199735,-0.010468991335468086,0.034043364873683014,-0.45065926693634817
1.5011515638471802,8.047835343229579,-0.008053302334484399,0.02236996812806437,-0.3025344924762434
1.4999749361787647,8.044837416435858,-0.005020338425687389,0.0109403295799558,-0.15344246772250472
1.4994439019369237,8.043858184013814,-0.0008800420392123349,-5.996933502653776e-05,-0.0053745139896449745
