x,y,v_x,v_y,omega
2.375,32.48,0.0,2.1538461538461537,-3.224489795918368
2.374335964897922,31.989714883911237,-0.005774218278942171,2.109502681708292,-3.053147617741756
2.37242758473516,31.50946067718415,-0.010820391832030096,2.0666208550489524,-2.8950676020205193
2.3694324041927235,31.03891041663602,-0.015224656363069324,2.0251205410217503,-2.748893969083794
2.365489428401217,30.577754869150308,-0.019062089650030936,1.9849276979844523,-2.613436534775065
2.360721485764253,30.125701202112854,-0.022398281106174662,1.9459737545151408,-2.4876475328149468
2.355237258115728,29.682471787252425,-0.025290654967955926,1.90819507035818,-2.370602080862386
2.3491330299665316,29.247803120580816,-0.027789589807667145,1.8715324659166614,-2.261481654378905
2.3424941997140447,28.82144484390971,-0.029939368909609843,1.8359308094842808,-2.1595600546687757
2.335396588484746,28.403158855675073,-0.03177898960603224,1.8013386534255942,-2.0641914539819255
2.327907576407193,27.9927185006393,-0.033342854546601276,1.7677079121028867,-1.9748001772378005
2.320087091300054,27.589907829552335,-0.03466136377634316,1.7349935756098285,-1.8908719411985275
2.3119884707980063,27.19452092110338,-0.03576142319798748,1.7031534543810973,-1.811946321153133
2.3036592156628575,26.806361259535223,-0.0366668823250446,1.672147950559368,-1.7376102549402546
2.29514164930848,26.425241162165094,-0.03739891206084825,1.6419398526591467,-1.6674924264107174
2.286473496303016,26.050981251789892,-0.03797633146492503,1.6124941506034898,-1.6012583967438685
2.277688390718115,25.683409969575763,-0.038415891012474786,1.5837778686497928,-1.5386063735754405
2.268816323606524,25.322363124561377,-0.03873251865353688,1.5557599140840117,-1.4792635256052749
2.259884037552897,24.96768347635735,-0.03893953398669651,1.5284109398640422,-1.4229827649680358
2.250915375114925,24.61922034801388,-0.039048835039146995,1.5017032196444073,-1.3695399317537862
2.2419315870175693,24.276829266364867,-0.03907106145959786,1.4756105338252674,-1.3187313251238626
2.2329700639932404,23.94037437025523,-0.03885522570847817,1.4500842149541724,-1.2665407495606749
2.224064020740729,23.609725201027903,-0.038588628661187716,1.4251259522399866,-1.2170112222415561
2.2152243970510614,23.28475367784261,-0.03827766429244086,1.4007133798060325,-1.1699727573710705
2.2064607408325303,22.965336732554945,-0.037928041955659686,1.3768252748693226,-1.125268283599987
2.1977813570102036,22.651356055271762,-0.03754486084717972,1.3534414841148887,-1.0827525083500373
2.1891934402845346,22.342697856184504,-0.03713267589776659,1.330542855774296,-1.0422908952962449
2.1807031935993706,22.039252642428316,-0.03669555614713861,1.3081111768882194,-1.003758742426595
2.1723159339428966,21.74091500882807,-0.036237136517851626,1.2861291152878183,-0.9670403496410479
2.164036186908039,21.447583441494015,-0.03576066378525903,1.26458016587789,-0.9320282661875334
2.155867771267441,21.15916013332061,-0.03526903743733558,1.2434486008473329,-0.8986226093916453
2.1478138746687603,20.875550810524118,-0.03476484602945077,1.2227194234700405,-0.8667304471445747
2.1398771214256747,20.596664569427908,-0.03425039956259837,1.2023783251926508,-0.836265237491804
2.132059633266029,20.322413722771213,-0.033727758347364356,1.1824116457351261,-0.8071463194313436
2.1243630837988485,20.052713654876683,-0.0331987587585521,1.1628063359564214,-0.7792984497002612
2.116788747374519,19.787482685066692,-0.03266503623561758,1.1435499232609148,-0.7526513809150258
2.109337542935728,19.526641938767334,-0.03212804584082584,1.1246304793421849,-0.7271394769459734
2.1020100733893505,19.270115225783854,-0.03158908064941214,1.1060365900794058,-0.702701361858556
2.0948066609701455,19.01782892527161,-0.031049288213241044,1.0877573274183858,-0.6792795991521783
2.0877273790148756,18.769711876963797,-0.03050968531084209,1.0697822230842964,-0.6568203983783737
2.0807720805193837,18.525695278250637,-0.02997117117169625,1.052101243986648,-0.6352733465299066
2.0739404238104506,18.285712586735414,-0.029434539340768437,1.0347047691892206,-0.6145911618663079
2.067231895628299,18.049699427920864,-0.02890048833011282,1.017583568328616,-0.5947294680838753
2.0606458318837664,17.81759350770495,-0.028369631187562576,1.0007287813749908,-0.5756465869531955
2.0541814363259556,17.589334529388516,-0.027842504097747207,0.984131899637467,-0.5573033477381423
2.047842098547783,17.364980598348275,-0.027282172234191403,0.9667718485385534,-0.5600113948298259
2.0416291243404925,17.144604468471538,-0.026743690437898874,0.9495423243026241,-0.5652002376893159
2.0355374045413837,16.928176572846695,-0.02622778607609186,0.9324393767829812,-0.5727350959381985
2.029561681914152,16.715668234058285,-0.025735019378096965,0.9154592213771154,-0.5824855820995467
2.023696587985285,16.507051627019,-0.02526579739465892,0.8985982311383949,-0.5943253860051255
2.0179366767963223,16.30229974354806,-0.02482038685719081,0.8818529294784725,-0.6081319722191717
2.012276455815505,16.101386358563808,-0.024398926019480644,0.8652199834280555,-0.6237862891823792
2.006710414234145,15.904285997765449,-0.024001435557560652,0.8486961974272516,-0.641172488838358
2.0012330488563523,15.710973906685002,-0.02362782859715904,0.8322785076201071,-0.6601776555546419
1.9958388877754603,15.521426020996099,-0.023277919932338232,0.8159639766312119,-0.6806915431916523
1.9905225120164856,15.335618937970889,-0.02295143449352842,0.7997497888053937,-0.7026063192061368
1.9852785753111433,15.153529888980387,-0.02264801511814382,0.7836332458946098,-0.7258163147006838
1.9801018221602447,14.975136712936902,-0.022367229672278784,0.7676117631791779,-0.750217779348035
1.9749871043276608,14.80041783057974,-0.022108577567582072,0.7516828660135273,-0.7757086401281077
1.9699293959003636,14.629352219507368,-0.021871495713262936,0.7358441867897164,-0.8021882628167921
1.9649238070403239,14.461919389860313,-0.021655363939256482,0.7200934623150992,-0.8295572151585645
1.9599655965461833,14.298099360559643,-0.021459509922834633,0.7044285316037681,-0.8577170306394792
1.955050183335611,14.137872636005458,-0.021283213647359328,0.6888473340848048,-0.8865699717528508
1.9501731569530483,13.981220183138799,-0.0211257114184045,0.6733479082339713,-0.9160187916164594
1.9453302872021363,13.82812340876837,-0.02098619945909009,0.6579283906393363,-0.9459664927568974
1.9405175329974795,13.678564137060562,-0.02086383710314254,0.6425870155155139,-0.9763160818230904
1.935731050526516,13.532524587087416,-0.020757749600888328,0.6273221146857548,-1.0069703189263635
1.9309672008091563,13.389987350322095,-0.02066703055006541,0.612132118056165,-1.0378314602278733
1.9262225567405027,13.250935367965265,-0.02059074395996576,0.5970155546119071,-1.0688009923049029
1.9214939097004011,13.115351907978177,-0.020527925953961666,0.5819710539714822,-1.0997793567244507
1.9167782758128296,12.983220541689104,-0.020477586111877624,0.5669973485421931,-1.1306656631347407
1.9120729019382248,12.854525119829052,-0.02043870844990363,0.5520932763278038,-1.1613573890517053
1.907375271482834,12.729249747839791,-0.020410252031755022,0.5372577844483721,-1.191750064367189
1.902683110111123,12.607378760282351,-0.020391151200514525,0.5224899334424222,-1.2217369384377408
1.8979943914502257,12.48889669415665,-0.020380315415983483,0.5077889024332387,-1.251208627426828
1.893307342879492,12.37378826092258,-0.02037662867735371,0.493153995254322,-1.2800527393689953
1.8886204515034624,12.262038316989251,-0.020378948505512796,0.4785846476441955,-1.3081534742024847
1.8839324704132072,12.15363183241179,-0.020386104453227603,0.4640804356380765,-1.3353911957788236
1.879242425349044,12.048553857503485,-0.02039689610471338,0.4496410853037062,-1.361641972607261
1.8745496218873658,11.946789487034572,-0.020410090518574866,0.43526648399119733,-1.3867770838344913
1.869853653285868,11.848323821646957,-0.020424419059665428,0.4209566932924125,-1.410662486705329
1.8651544091350791,11.753141926065872,-0.020438573555890443,0.4067119639344266,-1.4331582415125803
1.8604520849800554,11.661228783634023,-0.02045120170518576,0.3925327528642745,-1.4541178898465943
1.8557471930947163,11.5725692466305,-0.020460901645589336,0.3784197428185434,-1.4733877818301377
1.8510405746129472,11.487147981764569,-0.0204662155871837,0.3643738647112933,-1.4908063480213152
1.8463334132457652,11.404949410152845,-0.020465622388312787,0.3503963232167386,-1.5062033118579614
1.8416272508430878,11.325957640996613,-0.020457528939317633,0.33648862596790463,-1.5193988390055828
1.8369240050927194,11.250156398074068,-0.020440260194322022,0.32265261683683877,-1.5302026209089035
1.8322259896889865,11.1775289380506,-0.020412047664223307,0.30889051380201904,-1.5384128914536295
1.8275359373503084,11.108057959490505,-0.020371016150368796,0.29520495193791724,-1.543815378237648
1.822857026120582,11.041725501329612,-0.020315168455948232,0.2815990320698461,-1.546182193989224
1.8181929094560825,10.978512829446682,-0.020242367757090575,0.2680763756078155,-1.5452706798200806
1.8135477506811828,10.918400309864026,-0.020150317242036,0.25464118598048957,-1.5408222212300127
1.8089262624979667,10.861367267033366,-0.020036536525061224,0.24129831689482878,-1.5325610714899847
1.8043337523649505,10.807391825652356,-0.01989833419681881,0.22805334728786208,-1.5201932372603588
1.7997761747314496,10.75645073455874,-0.019732775659711682,0.21491266222184796,-1.503405511007467
1.7952601913468915,10.708519171537429,-0.01953664507557559,0.2018835379634566,-1.4818647782469896
1.7907932411911243,10.663570528466181,-0.019306399757183148,0.18897422787347468,-1.4552177910321502
1.7863836220451101,10.621576177291598,-0.019038114555982918,0.1761940432098737,-1.4230916912077465
1.7820405864272262,10.582505219128983,-0.018727412556050448,0.16355341907373042,-1.3850957000727153
1.7777744556994848,10.546324221697702,-0.018369376380830856,0.15106394989392813,-1.340824581920483
1.7735967578318546,10.512996954880162,-0.017958431163779983,0.13873837025859634,-1.2898647587836978
1.7695203969821374,10.482484141165443,-0.01748818492071937,0.12659044465201263,-1.231804326694258
1.7655598673272324,10.45474324803207,-0.01695120338280184,0.11463471302948339,-1.1662487191121822
1.761731530483181,10.429728363905834,-0.016338682217644312,0.10288601850299704,-1.0928443737625575
1.758053987004231,10.407390218720678,-0.01563995672974602,0.091358722237477,-1.0113133995773724
1.7545485904270213,10.387676433128274,-0.014841752637297886,0.08006550030518728,-0.9215026347181355
1.7512401811390415,10.370532101311142,-0.013927023779917003,0.06901564593074824,-0.8234499534034541
1.7481581634044345,10.3559008152606,-0.012873130434055611,0.058212928421774834,-0.7174678026045932
1.7453381237589962,10.343726187798463,-0.0116489534393216,0.04765339733595055,-0.6042363208148993
1.7428243205429002,10.333953759967638,-0.01021020496151399,0.03732423597555576,-0.48488322172398524
1.7406736545091932,10.326532771128313,-0.0084912388098517,0.027206101757694712,-0.3610050009317447
1.7389625356231833,10.32141640124852,-0.006388055851102895,0.017284071110075797,-0.2345635229312244
1.7378013414068025,10.31855679079126,-0.0037092851609020674,0.007582106779147783,-0.10759549241147309
