x,y,v_x,v_y,omega
2.375,32.48,0.0,2.051282051282051,-5.551020408163265
2.3743894160909904,32.11400870927863,-0.006784265655662639,2.0152878456220678,-5.319210165757197
2.3726203428446038,31.754413359490787,-0.012872103748631758,1.9802160409094751,-5.100977465161534
2.3698122881175454,31.401051824920735,-0.01832850432979404,1.9460232320910982,-4.895241267962991
2.3660736601825616,31.05376952396547,-0.02321180605891528,1.9126690007451945,-4.701025885945361
2.3615028955069954,30.71241890742675,-0.027574468114042648,1.8801156274628028,-4.517448959889056
2.3561894567935546,30.37685899535287,-0.031463739813079795,1.8483278400247498,-4.343711016289952
2.3502147183006104,30.046954956469023,-0.034922243441856085,1.8172725920180102,-4.179086366354416
2.343652752910627,29.72257772511693,-0.03798848311351384,1.7869188674496408,-4.022915151286339
2.336571033300549,29.40360365135721,-0.04069729033179366,1.7572375076584177,-3.8745963700960773
2.3290310578040563,29.089914180499342,-0.043080215184795205,1.728201057428961,-3.733581752471524
2.3210889100770355,28.781395558837005,-0.04516587067099253,1.6997836277081417,-3.5993703608515815
2.3127957604325378,28.477938562797522,-0.04698023649009168,1.671960772730541,-3.4715038236622684
2.3041983156584185,28.17943824907916,-0.04854692766679116,1.6447093796957293,-3.349562116445409
2.2953392232365832,27.885793723658864,-0.049887432575821775,1.618007569418635,-3.2331598199052185
2.286257435120416,27.596907927816645,-0.05102132427047854,1.591834606606024,-3.121942794176255
2.2769885355747244,27.312687439547595,-0.05196644845942793,1.5661708186056764,-3.0155852172420077
2.2675650370226426,27.033042288925742,-0.052739091008148935,1.5409975216371286,-2.913786942699585
2.2580166473617553,26.757885786149956,-0.05335412744615568,1.516296953649363,-2.816271138208586
2.2483705117952213,26.487134361145564,-0.053825156626444666,1.4920522130660963,-2.7227821711725477
2.2386491584998516,26.220712970900436,-0.05418987998877432,1.4681854563242434,-2.6310121410288008
2.2288715349047763,25.958549220629088,-0.054450382178728274,1.4447451022462752,-2.5431461203031396
2.2190555757118737,25.700567676028548,-0.05461583107574565,1.4217165044263766,-2.4589735852010475
2.209217634729812,25.44669548031298,-0.054694624280494555,1.3990856701910845,-2.3782975418139416
2.199372617413974,25.196862239968738,-0.05469445700659316,1.3768392225227093,-2.30093351277256
2.189534101767258,24.950999917116235,-0.054622383512477134,1.3549643647273089,-2.226708610561773
2.1797144487042375,24.709042728006096,-0.05448487274330471,1.3334488476075674,-2.1554606891428207
2.169924902867436,24.47092704721811,-0.05428785877670953,1.3122809389256047,-2.0870375664279743
2.1601756847835665,24.23659131716818,-0.054036786599621925,1.2914493949624961,-2.0212963109444027
2.150476075157952,24.00597596256151,-0.0537366536849793,1.2709434340005021,-1.9581025867226929
2.1408344920255793,23.779023309460072,-0.05339204778582945,1.2507527115710284,-1.897330051063073
2.131258561406131,23.5556775086593,-0.05300718131915499,1.2308672973264345,-1.8388598003792447
2.121755182046935,23.335884463093272,-0.05258592267190764,1.2112776534072398,-1.7825798598047848
2.1123305847810743,23.11959175900968,-0.05213182472654882,1.1919746141882348,-1.7283847126779752
2.1029903869771815,22.906748600675947,-0.051648150872255466,1.1729493672976838,-1.6761748664043064
2.0937396425120465,22.69730574839595,-0.05113789874035807,1.1541934358133545,-1.6258564515375413
2.084582887656386,22.49121545963346,-0.050603821878091884,1.1356986615476594,-1.5773408512250766
2.0755241832275892,22.288431433053404,-0.05004844955298162,1.1174571893418768,-1.5305443584357696
2.0665671533303476,22.088908755305965,-0.04947410486081513,1.0994614522963166,-1.485387858632175
2.0577150209765125,21.89260385039104,-0.04888292129290711,1.0817041578695128,-1.4417965357675544
2.048970640848885,21.699474431452124,-0.048276857902959214,1.064178274785127,-1.3996995996839845
2.0403365294496116,21.50947945485933,-0.04765771320007256,1.0468770206903173,-1.359030033163901
2.0318148928522097,21.322579076450953,-0.04702713788217151,1.0297938505139,-1.3197243570457258
2.0234076522566364,21.13873460981179,-0.046386646513088436,1.0129224454767898,-1.2817224119567516
2.015116467529156,20.957908486474892,-0.045737628236692265,0.9962567027109658,-1.2449671553449386
2.0069457801971784,20.78030222680883,-0.04504778656306115,0.9771461824675315,-1.2607370692907052
1.9988968265810787,20.60612550980394,-0.044385031393602135,0.9581506731423303,-1.2781859764390089
1.99096476946792,20.435357899907196,-0.043748936530382136,0.9392672145992791,-1.2971911430184186
1.9831448556504327,20.2679794829538,-0.04313899477503235,0.9204929737718078,-1.317631977937488
1.975432429910825,20.103970843614675,-0.04255462455394286,0.9018252411073823,-1.3393897715066558
1.9678229478613536,19.94331304344385,-0.04199517599574012,0.8832614274573022,-1.3623474373407138
1.960311987737247,19.785987599445914,-0.04145993649433241,0.8647990614086843,-1.3863892563737135
1.952895261231879,19.631976463083845,-0.04094813578753304,0.8464357870587524,-1.4114006219096176
1.9455686234589697,19.481261999647415,-0.04045895057812697,0.8281693622348996,-1.43726778461585
1.9383280821220294,19.333826967901196,-0.03999150872120891,0.8099976571675181,-1.4638775963429087
1.9311698059672409,19.189654499929752,-0.0395448929986644,0.7919186536263416,-1.491117251621149
1.9240901325924722,19.048728081095224,-0.03911814449876445,0.7739304445350698,-1.518874025645402
1.9170855756821459,18.91103153001956,-0.03871026561597373,0.7560312340834078,-1.5470350075089363
1.9101528317352197,18.77654897849962,-0.03832022268320646,0.7382193383604045,-1.5754868273900386
1.9032887863516024,18.645264851258744,-0.03794694824587443,0.7204931865381898,-1.6041153763268212
1.8964905201409017,18.51716384543262,-0.037589342984131725,0.7028513226409719,-1.632805517138434
1.889755314316527,18.392230909680286,-0.037246277286698284,0.6852924079405408,-1.661440784963409
1.8830806560378384,18.27045122280324,-0.03691659247650926,0.6678152240266362,-1.6899030757882443
1.8764642435632888,18.151810171746078,-0.036599101685152284,0.6504186766084782,-1.7180723212316222
1.8699039912783626,18.036293328841175,-0.0362925903695835,0.6331018001126519,-1.745826147732227
1.8633980346636179,17.923886428147313,-0.035995816460912364,0.6158637631525,-1.773039518161819
1.8569447352703397,17.814575340717603,-0.03570751013106761,0.5987038749553579,-1.7995843537515601
1.850542685774247,17.70834604861544,-0.03542637315884945,0.5816215928465025,-1.825329134081038
1.8441907151814552,17.60518461747801,-0.03515107787217409,0.56461653090272,-1.8501384727398706
1.8378878942655255,17.505077167405396,-0.03488026563815582,0.5476884699040834,-1.8738726661369052
1.8316335413200644,17.408009841928333,-0.03461254486696457,0.5308373687299702,-1.8963872128103316
1.825427228318024,17.313968774779816,-0.034346488489042565,0.514063377364647,-1.9175323004956117
1.8192687875767777,17.2229400541641,-0.03408063085813778,0.4973668516988997,-1.9371522581543232
1.8131583190373348,17.134909684180855,-0.03381346402455883,0.4807483703371126,-1.955084970180298
1.8070961982768758,17.049863543022592,-0.03354343331387375,0.46420875364360564,-1.9711612501142297
1.8010830853864144,16.967787337518804,-0.03326893213569813,0.4477490852873818,-1.9852041714624582
1.7951199348600617,16.888666553551666,-0.03298829593488638,0.43137073656972064,-1.9970283536973203
1.789208006659465,16.81248640181455,-0.03269979518285468,0.4150753938426686,-2.0064392023093607
1.7833488786369782,16.739231758327584,-0.03240162728922016,0.3988650893458356,-2.013232103017013
1.7775444605246302,16.668887099064456,-0.032091907292422915,0.38274223580003464,-2.017191572100138
1.7717970097238205,16.60143642798407,-0.031768657161019766,0.3667096650931406,-2.0180903675653443
1.7661091491640861,16.536863197702658,-0.0314297935026966,0.3507706713670075,-2.0156885698299245
1.760483887539924,16.47515022199205,-0.031073113432435167,0.3349290587508678,-2.009732646325536
1.7549246422849336,16.416279579256493,-0.030696278289682705,0.31918919386641703,-1.9999545225687507
1.7494352657060372,16.360232506136395,-0.030296794809165944,0.3035560630235541,-1.986070693796249
1.7440200747825645,16.306989280432088,-0.02987199322941825,0.28803533369097445,-1.9677814275765377
1.7386838852435074,16.256529092662813,-0.029419001648993717,0.2726334193009826,-1.944770130780482
1.7334320506834895,16.208829905817694,-0.028934715684537742,0.25735754564478425,-1.9167029865449519
1.7282705076825702,16.163868303277937,-0.028415762103455467,0.24221581590806343,-1.8832290120104118
1.7232058281857126,16.121619325581097,-0.027858454528297157,0.2272172696123902,-1.843980750561901
1.7182452808191946,16.082056297784412,-0.02725873843301259,0.21237192812854613,-1.7985758995775347
1.713396903442714,16.045150650839595,-0.026612121305662987,0.1976908157027519,-1.7466202946499971
1.7086695901651934,16.010871742852693,-0.025913581777896474,0.18318593970728173,-1.6877128339224134
1.7040731974566774,15.979186689676762,-0.02515744831672517,0.16887020669193972,-1.6214531420546994
1.6996186761268937,15.950060219340184,-0.024337233125316195,0.15475724149227038,-1.547453049715707
1.6953182392099557,15.923454571725323,-0.023445399285105868,0.14086106533950823,-1.4653532966794547
1.6911855807958622,15.899329473908743,-0.022473027538154628,0.1271955770669194,-1.3748472186724507
1.6872361684809536,15.877642232366789,-0.02140933151638536,0.1137737733992384,-1.2757134445781657
1.6834876436919464,15.858347994263351,-0.02024094391702771,0.10060664997230906,-1.167859566848594
1.6799603816152724,15.841400236942878,-0.018950856934905416,0.08770176469961861,-1.051377861965011
1.6766782888625698,15.826751538009805,-0.0175168403173451,0.0750615567789643,-0.9266115700036293
1.6736699579388719,15.814354639733498,-0.015909058834855522,0.0626817574022181,-0.7942247760995591
1.6709703667927611,15.804163720165178,-0.014086398344154098,0.050550682245775386,-0.6552595269516956
1.6686234517720946,15.796135571575658,-0.011990435218806796,0.03865096874891496,-0.5111512419768431
1.6666862452951157,15.79022997794505,-0.009534081192067143,0.026966738257857652,-0.363662988457092
1.665236493315549,15.78640767173697,-0.006574274136453772,0.015503330720796326,-0.21470092895648443
1.6643915467377473,15.784620737419054,-0.002814021172454091,0.004351495033828829,-0.06600502848452294
