x,y,v_x,v_y,omega
2.375,32.48,0.0,2.6666666666666665,-3.3469387755102042
2.3742668534457696,31.926154655271624,-0.006982348135528464,2.6080509021749645,-3.1501806925887745
2.3721682471694616,31.384390760904466,-0.01300437830549861,2.5516052346551374,-2.9705777739873027
2.368892653597416,30.85426621069116,-0.018191750952080435,2.497200005471566,-2.806178010601391
2.364604027973441,30.335365011165287,-0.022652302609586412,2.4447161804891206,-2.655292847202874
2.3594452591816952,29.82729517116731,-0.026478828740370032,2.394044200444014,-2.516456653426417
2.3535410863256985,29.329686816083758,-0.029751388935792617,2.3450829908279114,-2.388393159228209
2.3470005719333757,28.8421904961391,-0.03253922432442118,2.297739103883127,-2.2699875340953573
2.339919205731089,28.364475663288037,-0.03490235855449936,2.2519259708888915,-2.1602630635054325
2.3323806994470275,27.896229295387993,-0.03689293938894735,2.207563247206763,-2.058361588371908
2.3244585223019105,27.437154649664105,-0.03855636675502256,2.164576235877891,-1.9635270386444597
2.316217218142941,26.986970130189537,-0.03993224428278313,2.1228953781656132,-1.8750915220340947
2.307713538131877,26.545408256325814,-0.0410551843940163,2.0824558014888765,-1.792463531299323
2.298997417168029,26.11221472090292,-0.04195549145215703,2.043196916824421,-1.7151179148781155
2.29011281754627,25.68714752844507,-0.04265974304078284,2.0050620589646195,-1.6425873205772072
2.281098459511181,25.26997620502587,-0.04319128586482741,1.967998164075406,-1.574454874109054
2.2719884552078273,24.860481072412725,-0.04357065988139764,1.9319554798592757,-1.5103478962360637
2.2628128599182333,24.458452580072485,-0.04381596192426152,1.8968873043334895,-1.4499324962538873
2.2535981523075588,24.06369068938688,-0.043943158177397204,1.8627497498151278,-1.3929089071597713
2.2443676536032595,23.676004305091634,-0.04396635329212123,1.8295015291872305,-1.3390074503874594
2.2351418941281507,23.295210749525054,-0.043898022661298504,1.797103761923073,-1.2879850364506236
2.225938934351245,22.92113527576634,-0.04374921330923124,1.765519797683734,-1.2396221230137607
2.216774646565423,22.55361061617266,-0.043529717984311975,1.7347150555893924,-1.1937200644300148
2.207662962413543,22.192476563197573,-0.04324822631930566,1.7046568775066753,-1.1500987971485814
2.1986160907360106,21.837579579699824,-0.04291245632386044,1.6753143939004436,-1.1085948139991164
2.189644709579784,21.488772436237934,-0.04252926897353389,1.6466584009747038,-1.0690593875270489
2.1807581356722068,21.145913873097815,-0.042104768241487574,1.6186612479788056,-1.0313570085398143
2.171964474207144,20.80886828502304,-0.04164438856863859,1.591296733685722,-0.995364011038303
2.1632707514026936,20.477505426813998,-0.04115297147374054,1.564540011162294,-0.9609673589195112
2.1546830319584624,20.151700138136754,-0.04063483275703367,1.5383675000495498,-0.9280635733832702
2.146206523257072,19.831332086037587,-0.0400938215419245,1.5127568056568008,-0.8965577829705598
2.1378456679118387,19.516285523797578,-0.03953337222220096,1.4876866442480494,-0.86636288069553
2.1296158050998493,19.206450640977387,-0.03884627360626955,1.4631217635633038,-0.8343230434453743
2.121530434592616,18.90172167745318,-0.03815725503404976,1.4390588414291285,-0.8038000126462082
2.1135897717805596,18.601995155043475,-0.03746810508077326,1.415479467234738,-0.7747036060630005
2.105793680434191,18.30717137054522,-0.0367803839322593,1.3923660994153007,-0.7469500192075439
2.098141717958958,18.017154218640137,-0.03609544916519801,1.3697020139664562,-0.7204613030655305
2.090633175546043,17.73185102523123,-0.035414478576849116,1.3474712565945723,-0.6951648902717561
2.0832671138015524,17.45117239047739,-0.034738490418299184,1.3256585982038727,-0.6709931647229461
2.0760423943668895,17.175032040853775,-0.03406836134039654,1.3042494934496103,-0.6478830701882234
2.068957707982282,16.903346689619852,-0.03340484232253467,1.283230042111546,-0.6257757539769533
2.0620115993922408,16.636035905126374,-0.03274857282071281,1.2625869530644571,-0.6046162421620923
2.055202489445153,16.373021986437138,-0.03210009334202877,1.2423075106425578,-0.5843531432423882
2.0485286946983705,16.114229845782322,-0.031459856627326525,1.222379543212817,-0.5649383774657932
2.0419884448043337,15.85958689739719,-0.030828237601595997,1.2027913937884598,-0.5463269293352628
2.035579897921759,15.609022952333898,-0.030205542232449055,1.1835318925286096,-0.5284766210818657
2.029301154368232,15.36247011886515,-0.0295920154201849,1.1645903309832821,-0.5113479051232872
2.023150268706144,15.119862708126643,-0.02898784802827679,1.1459564379548985,-0.4949036737321962
2.0171252604323957,14.881137144671257,-0.028393183150275024,1.1276203568583152,-0.4791090843218948
2.0112241234233394,14.64623188163166,-0.027808121697883197,1.109572624471168,-0.463931398919062
2.0054448342696243,14.41508732020979,-0.027232727385115382,1.0918041509752145,-0.4493398365377274
1.9997853596208333,14.187645733231662,-0.026667031174799842,1.0743062011974334,-0.4353054372970557
1.9942436626466384,13.963851192524402,-0.026111035246103604,1.0570703769669634,-0.4218009372399635
1.9888177087096146,13.743649499889251,-0.025564716535077067,1.0400886005106493,-0.408800652911694
1.9835054703345256,13.52698812145995,-0.02502802989434183,1.0233530988160275,-0.3962803748486661
1.9783049315497685,13.313816125250174,-0.02450091091286732,1.0068563888961335,-0.38421726920946786
1.973214091668535,13.104084121707047,-0.023983278432214955,0.9905912638955651,-0.3725897868528736
1.9682350426776407,12.89788545608911,-0.023436235766776913,0.9732055515133431,-0.38822493827900967
1.9633676813847671,12.69532566747744,-0.02291958607011372,0.955935292407328,-0.40580561288958894
1.958605639881299,12.496380849303446,-0.022433190153394667,0.9387772616307231,-0.4252194361959811
1.9539425895640339,12.301027758970069,-0.021976812868176168,0.9217283605919291,-0.44635708408358105
1.9493722603961663,12.109243791869641,-0.021550131587707,0.904785611793102,-0.4691120412143924
1.9448884584586463,11.921006956463195,-0.021152744007720697,0.8879461539825722,-0.49338036701629784
1.9404850819297206,11.736295850336141,-0.020784175315380314,0.8712072377036608,-0.5190604683283003
1.936156135620653,11.555089637148647,-0.020443884770980192,0.8545662212248681,-0.5460528777956191
1.9318957441866624,11.377368024401964,-0.020131271743213976,0.838020566838788,-0.5742600371269194
1.9276981641239228,11.203111241944349,-0.01984568123525836,0.8215678375194654,-0.6035860843381968
1.923557794655986,11.032300021142127,-0.0195864089355699,0.8052056939302656,-0.6339366441138966
1.9194691876062184,10.864915574642897,-0.019352705824121387,0.7889318917767097,-0.665218620415647
1.9154270563466977,10.700939576658719,-0.019143782361789163,0.7727442795011611,-0.6973399904623689
1.9114262839084994,10.540354143697627,-0.01895881228771907,0.7566407963187702,-0.7302095991922726
1.907461930333383,10.3831418156715,-0.01879693604672193,0.740619470596716,-0.7637369532970777
1.9035292393425414,10.229285537307781,-0.018657263866055995,0.7246784185815678,-0.7978320138913351
1.899623644394282,10.078768639791047,-0.018538878498319433,0.7088158434825734,-0.8324049868445385
1.895740774199278,9.931574822558577,-0.018440837644576137,0.693030034921886,-0.8673661097602864
1.8918764577593263,9.787688135171322,-0.01836217606924799,0.6773193687662508,-0.9026254345344689
1.888026728993407,9.647092959178224,-0.018301907415699682,0.661682307358512,-0.9380926043626386
1.8841878310132354,9.509773989887567,-0.018259025728790675,0.6461174001715574,-0.9736766239945919
1.8803562201094781,9.375716217953787,-0.018232506687943555,0.6306232849120533,-1.0092856219508846
1.8765285695093423,9.244904910681825,-0.018221308551446883,0.6151986891066312,-1.0448266033206017
1.8727017729664177,9.117325592943669,-0.01822437280973944,0.5998424322091569,-1.0802051916511826
1.8688729482444564,8.992964027592887,-0.018240624542273667,0.584553428274469,-1.1153253583184364
1.8650394405582529,8.871806195252645,-0.01826897246918771,0.5693306892516304,-1.1500891376270106
1.8611988260370231,8.753838273340588,-0.018308308685381587,0.5541733289584553,-1.1843963257374908
1.8573489152786906,8.639046614180003,-0.018357508060642288,0.5390805678090148,-1.2181441613451298
1.8534877570673838,8.527417722030453,-0.0184154272851376,0.5240517383771877,-1.25122698584632
1.8496136423312866,8.418938228852156,-0.018480903534834007,0.5090862918923157,-1.2835358805221075
1.8457251084238868,8.313594868596784,-0.01855275272611666,0.4941838057779053,-1.314958278043833
1.8418209438187279,8.211374449792164,-0.018629767323015314,0.4793439923613428,-1.3453775453658963
1.8379001933161547,8.112263826159506,-0.018710713653872748,0.4645667089020661,-1.3746725348178677
1.8339621638703716,8.016249864968461,-0.01879432868691999,0.4498519691078664,-1.4027170999482108
1.8300064311566238,7.923319412797035,-0.018879316205914806,0.4351999563342912,-1.4293795724137643
1.8260328470116547,7.833459258319401,-0.018964342317600885,0.4206110386907851,-1.4545221959668273
1.8220415478960397,7.746656091694373,-0.019048030212066996,0.40608578630946995,-1.4780005133865268
1.8180329645448585,7.6628964600696925,-0.019128954084895775,0.3916249910684477,-1.4996627020648003
1.8140078329937648,7.582166718651891,-0.019205632115996234,0.377229689101104,-1.5193488539365754
1.8099672071912833,7.504452976717385,-0.019276518383828295,0.36290118646562114,-1.5368901956068732
1.8059124734356238,7.429741037857159,-0.019339993574834843,0.3486410883936841,-1.5521082449739545
1.8018453669060803,7.3580163336546995,-0.01939435432557906,0.33445133258210635,-1.5648139015211924
1.7977679905960213,7.289263849895196,-0.01943780100831548,0.32033422703220765,-1.5748064689593728
1.7936828369976592,7.223468044294627,-0.019468423737991968,0.3062924929732235,-1.5818726113466333
1.78959281293971,7.160612754623536,-0.019484186337711526,0.2923293134181204,-1.5857852476306142
1.7855012680398175,7.10068109598749,-0.019482907946980092,0.2784483878775665,-1.5863023953765556
1.781412027307233,7.043655345924314,-0.019462241887159965,0.2646539936764879,-1.5831659831784086
1.7773294285222903,6.989516815903524,-0.019419651302770277,0.2509510541405761,-1.5761006642201867
1.7732583651345177,6.938245707791758,-0.01935238096172948,0.23734521359052704,-1.564812682579924
1.769204335571553,6.88982095392085,-0.019257424399840507,0.2238429185133644,-1.5489888719292764
1.7651735000532653,6.844220039625963,-0.01913148529813666,0.21045150334271,-1.5282959072999747
1.761172746286725,6.801418807608197,-0.01897093152605579,0.19717927777885305,-1.5023799903539994
1.7572097658216577,6.761391244367424,-0.018771739569823278,0.18403561022849713,-1.4708672353668084
1.7532931434441372,6.7241092504688,-0.018529425930372354,0.17103099832981566,-1.4333651485035475
1.7494324628953977,6.689542398876405,-0.0182389602480984,0.15817711207394924,-1.389465772742522
1.745638433615035,6.657657689475872,-0.017894651945833208,0.14548678697874837,-1.3387513254248793
1.7419230454398331,6.628419313855158,-0.017489997341804484,0.13297393321853715,-1.2808035086673588
1.7382997617601896,6.601788453235738,-0.01701746627384516,0.12065331077595148,-1.2152181457699893
1.73478376739223,6.577723145041709,-0.016468194373389453,0.10854010059574062,-1.1416273896735956
1.7313922967305817,6.556178270575014,-0.015831526213737443,0.09664918003945161,-1.0597323983333813
1.7281450827737028,6.537105736994295,-0.015094320994632322,0.08499399691975848,-0.9693498511406752
1.7250649917630199,6.520454947162715,-0.01423987910711022,0.07358495385718732,-0.8704754140304892
1.722178946848589,6.5061736588525,-0.013246262935088043,0.06242731576392425,-0.7633650145200386
1.7195193068133516,6.4942093023785326,-0.0120836421624117,0.051518936369087186,-0.6486283647070509
1.7171259735182935,6.484510698309322,-0.010710008266713119,0.04084872143293547,-0.5273157289377782
1.7150497192125502,6.477029800462763,-0.009063842264175927,0.030397924724767406,-0.40095749805431524
1.7133578046815767,6.471722413105812,-0.007049629459382199,0.02014862153191367,-0.27149366340638026
1.71214511708318,6.468545198236114,-0.004499776239631841,0.010110567703314264,-0.14102627409964452
1.7115670145012891,6.467438563706356,-0.001005962635521795,0.0004288087705801632,-0.011397738530291662
