x,y,v_x,v_y,omega
2.375,32.48,0.0,2.564102564102564,-2.2448979591836737
2.3745737720386177,31.972494806843127,-0.004262279613820344,2.5109493674661354,-2.122655032266665
2.373350147208444,31.47544141559781,-0.007973968687920684,2.4595845449870217,-2.0101852707597567
2.3714325307982413,30.988491865191108,-0.011202195414105574,2.4099109590800234,-1.9064627249464179
2.368911788176458,30.51131691478171,-0.014005230803724409,2.3618385450139567,-1.8105894352033352
2.3658678878379455,30.043604695308975,-0.016433772581401433,2.315283649713371,-1.7217772475822357
2.36237130805297,29.585059485555057,-0.01853202526835582,2.270168447825796,-1.6393325078760392
2.3584842443566147,29.13540059837416,-0.020338611695194832,2.2264204239831575,-1.5626431334089952
2.3542616487291967,28.694361364767357,-0.021887344578986626,2.183971912084905,-1.4911676566528422
2.3497521261181387,28.26168820516377,-0.0232078815315946,2.142759683950955,-1.4244259101928174
2.344998709700583,27.837139778676704,-0.024326282643962492,2.1027245809197184,-1.3619910828375206
2.3400395327970864,27.42048620228831,-0.025265486391002644,2.0638111829642356,-1.3034829250594526
2.3349084124727972,27.011508332920243,-0.02604571685188684,2.02596751071639,-1.2485619209846632
2.3296353574868673,26.609997106202346,-0.02668483300741284,1.989144756462593,-1.1969242757658265
2.324247011280566,26.215752926482796,-0.02719862905560163,1.9532970407329135,-1.1482975928860975
2.3187670390552966,25.82858510325233,-0.027601093197093435,1.9183811915717408,-1.102437136934156
2.3132164666237016,25.448311329698235,-0.0279046311188555,1.8843565439691992,-1.0591225945935148
2.307613977572099,25.074757199575068,-0.028120259397170576,1.8511847572624835,-1.0181552607354483
2.301976174311558,24.70775575898922,-0.028257773208239415,1.8188296485960018,-0.9793555881770846
2.2963178077862785,24.347147090052875,-0.02832589204455403,1.7872570407674522,-0.9425610493281622
2.290651979925679,23.992777923677053,-0.028332386561444153,1.756434622990774,-0.9076242659727808
2.284990322349545,23.644501279049777,-0.02828418919989668,1.7263318232819753,-0.8744113701141933
2.2793431543463605,23.3021761275891,-0.028187490831945026,1.6969196913248097,-0.8428005643915439
2.2737196227291787,22.965667079376225,-0.028047825339873145,1.6681707908039178,-0.8126808552518099
2.2681278258192927,22.634844090265183,-0.027870143758987928,1.6400591003065172,-0.7839509359858434
2.2625749235057286,22.309582188035275,-0.027658879376650163,1.6125599219925644,-0.756518200042833
2.25706723507005,21.98976121610405,-0.027418004980139018,1.5856497973196937,-0.7302978678277281
2.2516103262443745,21.675265593453588,-0.027151083276616785,1.5593064291849357,-0.7052122125472479
2.2462090867802225,21.36598408954392,-0.026861311364902232,1.5335086099117328,-0.681189872672764
2.2408677996420545,21.06180961309581,-0.02655156001677664,1.5082361545693739,-0.658165240290924
2.2355902027982086,20.7626390137225,-0.026224408421679772,1.4834698391637189,-0.6360779160635724
2.230384801266146,20.468373622932695,-0.025829606898949004,1.4591840687343225,-0.6132735576143195
2.2252589482561485,20.17891830997295,-0.025428923201026712,1.4353690608631535,-0.5915091915319887
2.2202136746736834,19.89418059185659,-0.025023812623625324,1.4120081203004309,-0.5707251115738763
2.21524973692633,19.614071248988488,-0.024615564849906235,1.3890853083806125,-0.5508656867792893
2.2103676482889227,19.338504178155425,-0.024205321524168825,1.36658539995,-0.5318790392594969
2.20556770694596,19.067396253839494,-0.023794091905458285,1.3444938432093174,-0.5137167508485466
2.2008500210731556,18.800667197294345,-0.02338276682258511,1.3227967222421506,-0.4963335957325804
2.1962145312784083,18.53823945286807,-0.022972131124885733,1.3014807220206182,-0.4796872964922262
2.1916610306859763,18.2800380710962,-0.022562874799433752,1.2805330956980823,-0.4637383012716012
2.1871891829155485,18.025990598124856,-0.022155602904844102,1.2599416340153127,-0.4484495800333502
2.1827985381796764,17.776026971057178,-0.021750844453879134,1.239694636661497,-0.43378643807620604
2.1784885476981475,17.530079418846526,-0.021349060361408073,1.219780885445024,-0.4197163451834474
2.1742585766059483,17.288082368387904,-0.02095065056058329,1.2001896191411994,-0.4062087789405019
2.170107915512079,17.04997235548427,-0.02055596037811523,1.180910509895135,-0.3932350809105295
2.1660357908493646,16.815687940387946,-0.020165286249027314,1.1619336410680992,-0.38076832449049186
2.162041374140256,16.585169627638663,-0.019778880842058325,1.1432494864247285,-0.3687831933890217
2.1581237902901713,16.358359789939513,-0.01939695765878583,1.1248488905667824,-0.35725586977314167
2.1542821250080504,16.13520259583017,-0.01901969516242542,1.1067230505266632,-0.34616393122509614
2.1505154314432082,15.915643940933425,-0.01864724048599303,1.0888634984407737,-0.3354862557346183
2.1468227361182097,15.699631382566444,-0.01827971276399303,1.071262085229045,-0.3252029340270314
2.1432030442291183,15.487114077522275,-0.017917206126920177,1.0539109652126677,-0.3152951885947274
2.1396553443770707,15.278042722840283,-0.017559792393557906,1.03680258160727,-0.3057452988596771
2.13617861278849,15.0723694993962,-0.017207523492248418,1.0199296528335509,-0.29653653194850244
2.1327718170753713,14.870048018153671,-0.016860433638940686,1.0032851595917336,-0.2876530786099877
2.1294339195817935,14.671033268929477,-0.016518541296837497,0.9868623326501939,-0.27907999384832893
2.126166367795969,14.475458627028722,-0.01615697656140932,0.9688840863573541,-0.3058747432338909
2.1229679992359825,14.283468637750921,-0.01582670903845068,0.9510158064206573,-0.3342672232994084
2.119832603218359,14.095041602135726,-0.015527251137785384,0.933254549731284,-0.36415176711594355
2.1167540735902652,13.91015639854707,-0.015258045143151088,0.9155974861552962,-0.39542499241670065
2.1137264221006196,13.728792460480594,-0.015018469753306077,0.898041894509456,-0.42798557604896076
2.1107437905182476,13.550929755138796,-0.014807846070413461,0.8805851589085201,-0.4617340328259433
2.1078004616038815,13.37654876270048,-0.0146254430732495,0.8632247654746245,-0.496572497878996
2.1048908690356263,13.205630456212837,-0.014470482609303986,0.8459582994017968,-0.5324045116114269
2.1020096063810416,13.038156282035548,-0.014342143936540423,0.8287834423710962,-0.5691348063495428
2.099151435203144,12.874108140766996,-0.014239567842435153,0.8116979703144238,-0.6066690937738204
2.0963112923824117,12.713468368582785,-0.014161860364890866,0.7946997515276866,-0.6449138521932791
2.093484296732253,12.556219718916338,-0.01410809613669515,0.7777867451367892,-0.6837761126986761
2.090665754981349,12.40234534441037,-0.014077321372342272,0.7609569999228912,-0.7231632431945922
2.087851167192792,12.251828779066425,-0.014068556513229772,0.7442086535165635,-0.7629827292662822
2.085036231687024,12.104653920517375,-0.01408079854445315,0.7275399319739508,-0.8031419507836117
2.082216849533216,11.960805012344796,-0.014113022993623188,0.7109491497518495,-0.843547953080759
2.0793891286719246,11.82026662635933,-0.014164185619291472,0.6944347101028162,-0.8841072114756926
2.07654938773063,11.683023644757437,-0.014233223793657936,0.6779951059161039,-0.9247253878067789
2.0736941595931424,11.54906124206228,-0.014319057581215567,0.6616289210354616,-0.9653070775640822
2.0708201947838383,11.41836486674966,-0.01442059051182388,0.6453348320907368,-1.0057555460787682
2.067924464728321,11.290920222451895,-0.014536710043353558,0.6291116108869009,-1.045972452104172
2.065004164953439,11.166713248623033,-0.014666287705464057,0.6129581274017034,-1.085857556975101
2.062056718291671,11.045730100537682,-0.014808178912213876,0.5968733534518184,-1.1253084173663241
2.0590797781577495,10.927957128482777,-0.014961222427002952,0.5808563670972404,-1.1642200594854581
2.0560712319691747,10.813380855986551,-0.015124239458745433,0.5649063578650358,-1.2024846323281548
2.0530292047869905,10.701987956911388,-0.015296032363097423,0.549022632886583,-1.2399910373934007
2.0499520632589867,10.593765231216988,-0.015475382916937704,0.5332046240574246,-1.2766245320030114
2.04683841995449,10.488699579176636,-0.015661050128028306,0.5174518963461051,-1.3122663030918358
2.0436871381882113,10.386777973802204,-0.015851767534761387,0.5017641573982244,-1.3467930080346555
2.040497337440434,10.287987431201902,-0.016046239943009008,0.4861412686047907,-1.3800762787547876
2.037268399492314,10.1923149785584,-0.016243139538194083,0.4705832578302099,-1.4119821850229746
2.0339999754084315,10.099747619372845,-0.016441101300631637,0.45509033402534993,-1.4423706525120323
2.030691993514292,10.010272295571763,-0.016638717640758208,0.43966290398548863,-1.4710948308371399
2.027344668534432,9.923875846018014,-0.016834532157844022,0.4243015915519974,-1.498000406505915
2.023958512077559,9.840544960902754,-0.017027032410887075,0.40900725960060347,-1.522924855460576
2.0205343446791435,9.760266131421886,-0.017214641573269462,0.3937810352080845,-1.5456966297677153
2.01707330963952,9.683025594056783,-0.01739570882296257,0.37862433844295346,-1.5661342730755394
2.013576888927524,9.608809268684176,-0.01756849829699874,0.36353891528310167,-1.584045459826047
2.0100469214566483,9.537602689633626,-0.017731176411758354,0.3485268752224001,-1.5992259540451965
2.006485624083654,9.469390928692878,-0.017881797318180903,0.3335907341850786,-1.6114584850789524
2.0028956157296784,9.404158508932902,-0.01801828622157794,0.3187334634146782,-1.6205115402500143
1.9992799450828496,9.34188930808818,-0.01813842024671166,0.3039585450325185,-1.6261380785952473
1.9956421224115586,9.282566450089814,-0.018239806466197293,0.2892700349511458,-1.6280741763626487
1.9919861561021617,9.226172183219418,-0.01831985662777135,0.27467263375281514,-1.626037624905698
1.9883165946390435,9.172687743248417,-0.01837575800341241,0.26017176595721137,-1.619726516634816
1.9846385748762763,9.122093199878996,-0.018404439624260485,0.24577366773699666,-1.6088178771518025
1.9809578776205738,9.074367284856564,-0.018402532932762537,0.2314854824873193,-1.5929664350981019
1.9772809917740184,9.029487200352623,-0.01836632553279203,0.2173153625520746,-1.5718036707115692
1.9736151886032227,8.987428406736754,-0.018291706175164908,0.20327257360662984,-1.5449373570796225
1.969968608160189,8.948164389843946,-0.018174098255171012,0.18936759532146233,-1.5119519154088592
1.9663503605636263,8.911666409568063,-0.018008377710456762,0.1756122074373801,-1.4724100627047194
1.96277064589879,8.877903234474843,-0.017788768937908605,0.16201954349483108,-1.4258564584164213
1.9592408981448948,8.846840871711773,-0.01750870860104208,0.14860408413585885,-1.3718243839592892
1.9557739611872786,8.818442308609495,-0.01716066097511995,0.1353815468869337,-1.3098469489256583
1.9523843092783792,8.792667293070032,-0.016735858113874458,0.12236860850770216,-1.2394749404431937
1.9490883313773109,8.769472195279931,-0.016223920896807718,0.10958236939331106,-1.1603042188760404
1.9459047104314375,8.748810014237964,-0.015612288561925924,0.09703944102637582,-1.072016420860999
1.9428549477964188,8.730630618043449,-0.014885337788261756,0.084754520918763,-0.9744373241471235
1.9399641143220354,8.71488133084555,-0.014022996955571736,0.07273835106020764,-0.8676166859095756
1.937261960842454,8.701507984178868,-0.012998537840243811,0.060995115606627445,-0.7519298056455354
1.934784606064222,8.690456495370665,-0.01177500994207431,0.04951977247541744,-0.6281911831782635
1.9325771737155726,8.68167484119095,-0.01029931354442076,0.038296769321720756,-0.4977505229906005
1.9306980903711288,8.675114822387854,-0.008491519900016892,0.027303418709256733,-0.3625111207136249
1.92922678302064,8.670731972058473,-0.006221553604871144,0.01652508458454642,-0.2247841572112949
1.9282810833282265,8.668478904232913,-0.0032354433192645603,0.006005593671036404,-0.08690144329384827
