x,y,v_x,v_y,omega
2.375,32.48,0.0,2.717948717948718,-4.6938775510204085
2.3742519969687046,31.995692765654777,-0.008311144792171439,2.6632427747759295,-4.44858512698332
2.37210025960833,31.521071126775237,-0.015597048100880338,2.61033099055233,-4.222057643611109
2.3687186008470857,31.055820992801944,-0.021976938135166456,2.559114942484229,-4.01240067177282
2.3642607305435015,30.599645304436958,-0.027554954126880724,2.5095038171267467,-3.8179485385992993
2.3588627807526557,30.15226273601409,-0.032422265771407326,2.461413609793979,-3.6372325877865648
2.3526454792864078,29.7134065321109,-0.03665886163134559,2.4147664335748438,-3.468954405177346
2.3457160259804883,29.28282346033616,-0.04033506398998373,2.369489919477767,-3.3119631433011447
2.3381697167320015,28.86027286522575,-0.04351281654875819,2.3255166928601496,-3.16523624592088
2.3300913528046983,28.445525810596465,-0.046246782643500815,2.2827839141318993,-3.0278630054135736
2.3215564667394664,28.038364299669283,-0.048585284747962726,2.2412328739479,-2.8990304902807402
2.3126323911649553,27.63858056387616,-0.050571110524383726,2.200808634864562,-2.7780114634273456
2.3033791926544978,27.245976412583012,-0.052242206258477246,2.1614597128371242,-2.664153978731001
2.29385048934621,26.860362637052493,-0.05363227494471619,2.1231377930575124,-2.5568723973918805
2.2840941681962996,26.481558462878873,-0.054771293387626006,2.0857974755382696,-2.4556396093261386
2.2741530153628164,26.10939104588797,-0.05568596031774225,2.0493960465828684,-2.359980280538676
2.2640652712320333,25.743695007136097,-0.05640008557984744,2.0138932728824086,-2.26946497661488
2.25386511993313,25.3843120031843,-0.05693492885241451,1.9792512154709103,-2.183705036480138
2.2435831217832547,25.031090328285924,-0.0573094950350873,1.945434061177668,-2.102348090393488
2.233246595919182,24.683884545520236,-0.057540792343496176,1.9124079695522052,-2.025074132561329
2.222879959366997,24.342555144243867,-0.05764405823633718,1.8801409335185426,-1.951592072410025
2.2125050279475484,24.006968221524595,-0.05763295753531059,1.8486026522511612,-1.8816366999471843
2.2021412836881886,23.67699518547527,-0.057519756457578286,1.81776441496356,-1.8149660101758431
2.191806112790287,23.352512478626405,-0.05731547574133091,1.787598994468288,-1.751358839530841
2.1815150176704328,23.03340131966835,-0.05703002559038271,1.7580805495101093,-1.690612774047405
2.1712818061371713,22.719547462062813,-0.05667232477918924,1.7291845349958423,-1.6325422946639976
2.161118760373015,22.41084096817179,-0.05625040593365738,1.7008876193488829,-1.576977129880901
2.1510367880536445,22.107175997682823,-0.055771508726013774,1.673167608306314,-1.5237607900871342
2.1410455576445697,21.808450609225382,-0.05524216248592679,1.646003374554153,-1.4727492613497943
2.1311536196632703,21.514566574175785,-0.05466825952851308,1.6193747926635926,-1.4238098394297103
2.121368515476239,21.225429201739594,-0.054055120327390065,1.5932626788496431,-1.3768200873264298
2.111696875010599,20.940947174481906,-0.053407551513055804,1.5676487351246684,-1.3316669018313163
2.102144504594939,20.661032393548922,-0.05272989754983079,1.5425154974640465,-1.2882456764359056
2.092716466000283,20.38559983288952,-0.052026086835237885,1.5178462876404484,-1.2464595495504427
2.0834171476266863,20.114567401844276,-0.051299672871390284,1.4936251684178166,-1.2062187283738024
2.0742541628562807,19.847858160096106,-0.0505112690220057,1.4698108510062753,-1.1656380359871843
2.065233619118672,19.585397728739892,-0.04971699472920114,1.4464161640627953,-1.1267733107218896
2.05635639450114,19.32711183695675,-0.048918834354489404,1.4234270779721068,-1.0895327194329854
2.0476230294978124,19.07292868567042,-0.04811855457137213,1.4008301585426695,-1.0538302705889058
2.0390337642419984,18.82277884325635,-0.047317726048782656,1.3786125349469485,-1.0195853831491737
2.0305885720342376,18.57659514683585,-0.04651774292634056,1.3567618697253092,-0.9867224915309524
2.022287189542232,18.334312608797767,-0.04571984031816239,1.3352663306978105,-0.9551706832909106
2.0141291440086464,18.095868328217215,-0.04492511005501262,1.3141145646416819,-0.9248633664967254
2.0061137777671156,17.861201406865064,-0.04413451485088564,1.2932956726044527,-0.8957379640712035
1.9982402703352022,17.63025286952463,-0.04334890105926262,1.2727991867336954,-0.8677356326662681
1.9905076583249355,17.40296558835231,-0.04256901016592251,1.2526150485142846,-0.8408010038680762
1.9829148533865932,17.179284211037846,-0.04179548914899109,1.2327335883130766,-0.8148819457519296
1.975460658379149,16.959155092537152,-0.04102889982261217,1.2131455061390686,-0.7899293429995552
1.968143781940995,16.742526230166533,-0.040269727267986916,1.1938418535345081,-0.7658968939645201
1.9609628516168853,16.529347201861704,-0.03951838744434428,1.1748140165191483,-0.7427409232264063
1.953916425681269,16.319569107418545,-0.03877523406250138,1.156053699515972,-0.7204202083129987
1.9470030037841037,16.1131445125448,-0.038040564794890847,1.1375529101922894,-0.6988958193939936
1.9402210365326311,15.910027395563525,-0.03731462688813912,1.119303945155196,-0.6781309708612122
1.9335689341113365,15.710173096619503,-0.03659762223735651,1.101299376445031,-0.6580908838104457
1.9270450740322116,15.513538269249725,-0.03588971197514414,1.083532038774717,-0.6387426585300979
1.9206478080983924,15.320080834187994,-0.03519102062284439,1.0659950174667514,-0.6200551561828463
1.9143754686561352,15.129759935282102,-0.034501639846681614,1.048681637043175,-0.601998888939573
1.9082263742027958,14.942535897409776,-0.03382163185708863,1.0315854504271083,-0.5845459178906954
1.902198834411951,14.758370186286768,-0.033151032485632594,1.0147002287174363,-0.5676697581195009
1.8962911546309003,14.577225370067111,-0.032489853970486524,0.9980199515009763,-0.5513452903758416
1.8905065972934731,14.399287861682577,-0.031783005334259734,0.9790634749938505,-0.5846452366482989
1.884845304828966,14.22475300440452,-0.031120244271375736,0.9602127169845559,-0.6192457117037352
1.8792994647415244,14.05360200738907,-0.030500201144639874,0.9414650276315362,-0.6550401649140157
1.8738615131604894,13.885816547222824,-0.02992148308908074,0.9228178631045239,-0.6919236380764904
1.8685241387184588,13.721378749087581,-0.02938267737792773,0.9042687828426268,-0.729792533759074
1.8632802858557285,13.560271168384936,-0.028882354430187416,0.8858154471867523,-0.7685443851629331
1.8581231576137347,13.402476772753356,-0.02841907048085453,0.8674556153863691,-0.8080776265014713
1.853046217976562,13.247978924410067,-0.027991369932174784,0.8491871439835262,-0.8482913628732252
1.8480431938165025,13.096761362749337,-0.027597787401819847,0.8310079855801422,-0.8890851385770313
1.8431080764970202,12.948808187127316,-0.027236849481316005,0.8129161879978802,-0.9303587027799682
1.838235123184301,12.804103839761591,-0.026907076215563416,0.7949098938434968,-0.972011771401545
1.8334188579168413,12.662633088670997,-0.02660698231176744,0.776987340496436,-1.0139437840207872
1.8286540724812625,12.524381010577745,-0.026335078083550872,0.7591468605397129,-1.0560536545455173
1.8239358271417372,12.389332973689786,-0.02608987013339837,0.741386882659847,-1.0982395143044308
1.8192594512700828,12.25747462027618,-0.025869861773871697,0.7237059330468693,-1.1403984461316283
1.814620543923767,12.128791848942146,-0.025673553185194573,0.7061026373313044,-1.1824262079090808
1.8100149744197571,12.00327079650318,-0.02549944130380326,0.6885757231016527,-1.2242169439140467
1.805438882953422,11.88089781934923,-0.025346019433255085,0.6711240230533706,-1.2656628821846254
1.8008886813135394,11.761659474179833,-0.025211776565438847,0.6537464788288239,-1.3066540159663445
1.7963610537469838,11.64554249797968,-0.02509519639629104,0.6364421456173189,-1.3470777671349083
1.7918529580298652,11.532533787090543,-0.02499475601613669,0.6192101975952942,-1.3868186293041358
1.7873616268058874,11.422620375220031,-0.024908924250283994,0.6020499342992753,-1.4257577881230996
1.7828845692575133,11.315789410209632,-0.024836159620540144,0.5849607880385091,-1.4637727160424927
1.7784195731813122,11.212028129363816,-0.024774907892805727,0.5679423324705448,-1.5007367385879937
1.7739647075456815,11.11132383311811,-0.02472359916975944,0.5509942924817226,-1.536518568919792
1.7695183256171343,11.013663856796526,-0.024680644480763504,0.5341165555358702,-1.5709818071861599
1.7650790687506608,10.919035540177205,-0.024644431813386523,0.5173091846788193,-1.603984400901347
1.7606458709504564,10.827426194548853,-0.024613321522218325,0.5005724334139746,-1.635378062304254
1.7562179643197866,10.738823066899009,-0.02458564104077698,0.48390676269539573,-1.6650076383999834
1.7517948855331191,10.65321330082763,-0.02455967881108475,0.4673128603199156,-1.6927104291750636
1.7473764834801813,10.570583893725342,-0.02453367733267076,0.450791663038835,-1.7183154493438701
1.742962928250618,10.490921649694119,-0.024505825218031456,0.43434438175253454,-1.7416426289798173
1.738554721649787,10.414213127618627,-0.024474248124534494,0.4179725301973898,-1.7625019485848836
1.7341527094614237,10.340444583718444,-0.02443699841283341,0.40167795758242836,-1.7806925046630042
1.7297580957020222,10.26960190782474,-0.024392043358295593,0.3854628856809383,-1.7960015028428002
1.7253724591455493,10.201670552530135,-0.024337251713626235,0.3693299509257697,-1.8082031772678204
1.7209977724365682,10.13663545425873,-0.02427037838616379,0.35328225208983866,-1.8170576376617638
1.716636424156334,10.074480945197607,-0.024189046949770168,0.3373234041448709,-1.8223096496486206
1.7122912442618985,10.015190654926698,-0.024090729655070538,0.3214575988652246,-1.8236873602360075
1.7079655333855,9.958747400489958,-0.023972724527134903,0.3056896726540943,-1.8209009898249764
1.7036630965647048,9.905133063582149,-0.02383212903725556,0.290025181877126,-1.8136415260933922
1.699388282079211,9.854328453506202,-0.023665809690453815,0.2744704856333811,-1.80157947563854
1.6951460262077678,9.806313154623577,-0.023470366658916858,0.25903283528467896,-1.7843637592836201
1.6909419049037058,9.761065357232109,-0.02324209227510416,0.24372046906496636,-1.7616208806682336
1.6867821936447014,9.718561671251422,-0.02297692171383527,0.22854270849821345,-1.732954561201389
1.6826739370811026,9.678776922908455,-0.022670373437262876,0.21351005086808897,-1.6979461262515625
1.6786250306514439,9.641683935994468,-0.022317475781165982,0.198634248176212,-1.6561560596052725
1.6746443171578465,9.60725330150158,-0.02191267414769621,0.18392835730032148,-1.607127332100604
1.6707417025680877,9.575453142957763,-0.021449710182954544,0.16940673763098696,-1.5503913770892725
1.6669282973133723,9.54624889013579,-0.020921459313883724,0.15508496039094147,-1.4854779547331205
1.6632165925345275,9.51960308174585,-0.020319704895501934,0.14097957727504776,-1.4119306415336963
1.6596206858283549,9.495475229048605,-0.019634814061974253,0.127107674916547,-1.3293303038880728
1.65615657923464,9.473821787649808,-0.018855259201523564,0.11348611840343097,-1.2373296060939332
1.6528425853332969,9.454596303660502,-0.017966895257844066,0.10013037036662249,-1.1357021505034912
1.6496998982608684,9.43774981970111,-0.016951849991360332,0.08705278473772174,-1.0244096988055515
1.6467534196787335,9.423231636122718,-0.01578680092125253,0.07426036613332136,-0.9036888858526712
1.644032982768142,9.410990500456293,-0.01444027586309694,0.061752252382510184,-0.7741527464714464
1.6415752061453768,9.40097619818479,-0.01286835327873626,0.049517772856410174,-0.6368892755171838
1.6394263808981062,9.393141262375739,-0.011007482802050602,0.03753706946636961,-0.4935175374606581
1.6376472223784897,9.38744197498237,-0.008760945193688457,0.02578834601551789,-0.34613709019877903
1.6363217929373244,9.38383661062565,-0.005966048597035555,0.014271257948028696,-0.19709716262060156
1.6355805309465175,9.382274220950542,-0.002270195745263982,0.0030886273309411114,-0.04855271095852917
