x,y,v_x,v_y,omega
2.375,32.48,0.0,3.5897435897435894,-6.285714285714286
2.3727194937962612,31.66671370718843,-0.019830488728162194,3.48231113035699,-5.756902173239761
2.3663124123800263,30.877454286033245,-0.0358832627173611,3.3808142709924573,-5.295615933557384
2.356567550468967,30.110916617763696,-0.04885466694402329,3.28473067048186,-4.890838078978276
2.344129533069023,29.365908246847567,-0.05930200609896802,3.193602989658414,-4.533662383827495
2.3295272839133396,28.6413356886163,-0.06767407351566972,3.1070279514830177,-4.2168348406089375
2.3131963208280335,27.936192980810667,-0.07433430113916546,3.0246477685659716,-3.934405881672294
2.2954963496345577,27.249552005894433,-0.07957849184758183,2.9461433176621648,-3.681464117938864
2.2767252429190323,26.580554232231137,-0.08364852307002989,2.8712286272360665,-3.4539305544963246
2.2571302153350663,25.928403607681542,-0.08674302113836849,2.799646368847343,-3.2483981777779025
2.236916808317657,25.292360400545952,-0.08902573553475426,2.731164127983877,-3.0620059254258556
2.216256151313537,24.671735827616818,-0.09063215145759729,2.665571288791214,-2.892338949657395
2.195290858505906,24.065887342416147,-0.09167474252180362,2.6026764086058964,-2.7373491559892056
2.174139838991346,23.474214481818727,-0.0922471663004559,2.54230498789343,-2.5952914967332985
2.1529022371077513,22.89615518849056,-0.09242763268732233,2.4842975627862907,-2.4646725936645377
2.1316606729167855,22.331182541484612,-0.09228162114716651,2.4285080633523712,-2.3442090730120584
2.1104839169868477,21.778801839044796,-0.0918640825914199,2.3748023926460506,-2.232793598789635
2.089429105900886,21.238547986968015,-0.09122123119955443,2.3230571906302804,-2.1294670436820793
2.0685435833477324,20.709983153336516,-0.09039200839308613,2.2731587539914613,-2.033395580068677
2.0478664347817683,20.19269465647872,-0.08940928348486177,2.2250020882502337,-1.943851735802892
2.0274297703613744,19.68629305795875,-0.08830084190986558,2.178490072792988,-1.8601986606988898
2.0072598003810187,19.190410436466244,-0.08709020139757803,2.1335327227940275,-1.781877005347385
1.9873777390735519,18.704698821857473,-0.08579728823256698,2.0900465346735264,-1.7083939349709543
1.9678005660049718,18.228828771422172,-0.08443899932030277,2.0479539038942884,-1.6393138957476645
1.948541668950658,17.762488072824038,-0.08302967071720803,2.0071826056547297,-1.5742508255204581
1.9296113878502166,17.305380560169418,-0.08158146928663113,1.9676653304723928,-1.5128615596869273
1.911017475970765,16.857225031363825,-0.08010472096946893,1.9293392678371062,-1.4548402298271834
1.8927654915969392,16.417754256371524,-0.07860818662901747,1.892145732095962,-1.399913489940841
1.8748591312779568,15.986714067241927,-0.07709929440561172,1.8560298255526921,-1.347836435069038
1.8573005137938863,15.563862521841347,-0.07558433589065375,1.8209401344523384,-1.2983891011465474
1.8400904224728154,15.148969134157543,-0.07406863211865694,1.7868284541024768,-1.2513734543801207
1.8232285122329204,14.741814164850265,-0.07255667431521524,1.7536495398738468,-1.2066107942299091
1.8067134866867383,14.34218796642201,-0.07105224347767229,1.7213608812414232,-1.1639395069220257
1.7905432497879585,13.949890377995072,-0.06955851216388916,1.6899224963841208,-1.123213116923941
1.7747150357905928,13.564730165216638,-0.06807813129146477,1.6592967451674903,-1.0842985924294466
1.7592255206998566,13.186524501283706,-0.0666133042801553,1.6294481585971408,-1.0470748679899227
1.744070917901947,12.815098485493372,-0.0651658504842767,1.6003432830579305,-1.0114315532827205
1.729247060248722,12.450284696088875,-0.06373725954376655,1.5719505378507461,-0.977267801856432
1.7147494705289248,12.091922774494442,-0.0623287380196864,1.5442400847095437,-0.9444913177215853
1.7005734219685182,11.739859038317888,-0.060941249462109215,1.5171837081300588,-0.9130174810126176
1.6867139901594772,11.393946120753718,-0.05957554887737761,1.4907547054714305,-0.882768576752831
1.6731895520265323,11.05404540807762,-0.05802826097431808,1.4649036656250722,-0.847742700227044
1.6600163441870985,10.720023744885015,-0.05652137241206233,1.439632536049751,-0.8145034015221876
1.647185135050703,10.391750384527487,-0.05505435920876669,1.4149184235809389,-0.7829364768731206
1.6346868246425577,10.06909971133075,-0.053626600862064285,1.390739604216775,-0.7529364085442588
1.6225124646356632,9.751950980281375,-0.05223739919788746,1.3670754483864962,-0.7244056002560405
1.6106532743664013,9.440188073247462,-0.050885994447868343,1.3439063519083907,-0.6972536888122771
1.5991006534258156,9.133699270482563,-0.049571578948527574,1.3212136721342254,-0.6713969234675358
1.587846191334911,8.83237703627194,-0.04829330879847164,1.2989796688277229,-0.6467576056070844
1.5768816747405228,8.536117817679251,-0.04705031376142521,1.2771874493695783,-0.623263582207883
1.5661990925068554,8.24482185544079,-0.04584170566176846,1.2558209179214033,-0.6008477873273568
1.5557906390250693,7.95839300613493,-0.04466658548419812,1.234864728216522,-0.5794478265439479
1.545648716018074,7.6767385748271515,-0.04352404935923762,1.2143042396772106,-0.5590055998638599
1.5357659330788205,7.399769157456852,-0.042413193590793825,1.1941254765862683,-0.5394669591240128
1.5261351071469642,7.127398492291828,-0.04133311886012942,1.1743150900661066,-0.5207813963722671
1.5167492611000273,6.859543319830486,-0.04028293372193286,1.1548603226412173,-0.5029017601011725
1.5076016216104076,6.596123250581023,-0.039261757492150245,1.1357489751802121,-0.4857839965583356
1.4986856163982578,6.3370606401916305,-0.038268722613499395,1.1169693760318964,-0.4693869136613654
1.4899948709918358,6.082280471446541,-0.037302976572779915,1.0985103521862767,-0.45367196531374476
1.481523205091063,5.8317102426799075,-0.03636368343394106,1.0803612023062061,-0.4386030541545959
1.4732646286163145,5.585279862193492,-0.03545002504213082,1.062511671488726,-0.42414635098423664
1.465213337512631,5.342921548295159,-0.03456120194642177,1.0449519276272217,-0.41027012929215223
1.4573637093693144,5.10456973460354,-0.033696434082417626,1.0276725392564183,-0.3969446134775747
1.449710298906047,4.870160980290258,-0.03285496125034295,1.0106644547721098,-0.38414183949788655
1.442247833369029,4.639633884954922,-0.032036043419379934,0.9939189829264661,-0.37183552680881704
1.4349781446420335,4.413030696731344,-0.031178641163188584,0.976543523365512,-0.3778759022030875
1.4279013487883658,4.190408945674008,-0.03035871408609477,0.9592977901765287,-0.38636097163658484
1.4210088298529082,3.9717392453273668,-0.029576233178753585,0.9421778650116588,-0.3971572599727824
1.4142919932424287,3.756993091654948,-0.028831041694981102,0.9251799930093609,-0.41013575800743335
1.4077422937410171,3.546142826350021,-0.028122867012945165,0.9083005748595551,-0.42517160201700577
1.4013512609101777,3.339161601902969,-0.027451331516094534,0.8915361594626383,-0.44214376714889203
1.3951105220903728,3.136023348292685,-0.026815962569165748,0.8748834371485309,-0.46093477329744303
1.3890118232042092,2.9367027411766635,-0.026216201658344342,0.8583392334255643,-0.4814304021765694
1.3830470475462295,2.7411751714609878,-0.025651412758870017,0.8419005032324863,-0.503519424356849
1.3772082327303377,2.549416716137184,-0.025120889988015448,0.8255643256701553,-0.5270933350832305
1.3714875859531308,2.3614041102779595,-0.02462386459639095,0.8093278991926722,-0.5520460977288724
1.3658774977197683,2.177114720088113,-0.0241595113458909,0.793188537240782,-0.5782738937716534
1.3603705541683904,1.9965265169105315,-0.023726954318264524,0.7771436643034002,-0.6056748782025914
1.3549595481194538,1.8196180520900853,-0.023325272194227295,0.7611908123961252,-0.634148939289878
1.3496374889676102,1.6463684326004397,-0.022953503039196212,0.7453276179486058,-0.6635974616284505
1.3443976115258711,1.4767572973403453,-0.022610648628099667,0.7295518190957004,-0.6939230914028578
1.339233383924741,1.3107647940067295,-0.02229567833824975,0.7138612533705121,-0.7250295027804321
1.3341385146627092,1.1483715564520445,-0.022007532635940626,0.6982538558006661,-0.7568211643321282
1.3291069588989655,0.9895586824325129,-0.02174512617922108,0.6827276574126568,-0.7892031043494536
1.3241329240743975,0.8343077116524888,-0.021507350556151952,0.6672807841527784,-0.8220806738871554
1.3192108749428415,0.68260060400765,-0.021293076674769384,0.6519114562371324,-0.8553593063121544
1.3143355380911845,0.534419717926415,-0.021101156817900677,0.6366179879475338,-0.8889442720788948
1.3095019060242439,0.38974778870453264,-0.02093042637288847,0.6213987878948927,-0.9227404273789803
1.304705240888401,0.24856790672227191,-0.020779705243135833,0.6062523597769202,-0.9566519552277476
1.2999410779067477,0.11086349542669183,-0.020647798945153038,0.5911773036628797,-0.9905820974512561
1.295205228598041,-0.02338171104668163,-0.020533499391425934,0.576172317844703,-1.0244328759228947
1.2904937838520993,-0.15418369074846083,-0.02043558535589327,0.5612362013012316,-1.0581048012682346
1.285803116935439,-0.28155815743364343,-0.02035282261506776,0.5463678568307823,-1.0914965671086458
1.2811298865030178,-0.40552058488461995,-0.02028396375381135,0.5315662949168333,-1.124504727747326
1.2764710396949812,-0.5260862322163504,-0.020227747620420063,0.5168306384025865,-1.1570233570146722
1.2718238154013768,-0.6432701703598553,-0.020182898410923276,0.5021601280626925,-1.1889436857825029
1.2671857477830333,-0.7570873099421647,-0.020148124357282013,0.48755412917479274,-1.2201537154280828
1.2625546701432802,-0.8675524308064197,-0.020122115988398206,0.47301213921000745,-1.2505378042795723
1.2579287192530753,-0.9746802134453176,-0.020103543926426232,0.45853379678040773,-1.2799762238058634
1.2533063402415607,-1.0784852726554348,-0.02009105617370031,0.4441188920031893,-1.3083446810290416
1.2486862921752693,-1.1789821937594027,-0.020083274837529738,0.4297673784660904,-1.3355138033428122
1.244067654462386,-1.276185571788801,-0.020078792231019237,0.41547938700693865,-1.361348581624961
1.2394498342338758,-1.3701100540731304,-0.020076166277766573,0.4012552415524327,-1.3857077672518177
1.2348325748712283,-1.46077038674089,-0.020073915136558387,0.3870954772976586,-1.4084432183816902
1.2302159658714167,-1.548181465708204,-0.020070510948760185,0.3730008615485702,-1.42939919070838
1.225600454263811,-1.632358392809671,-0.020064372595636183,0.3589724175946362,-1.4484115678488947
1.2209868578218004,-1.713316537816219,-0.02005385733489045,0.345011452027541,-1.465307026700553
1.2163763803443495,-1.7910716071862751,-0.020037251164683113,0.331119585972968,-1.4799021335981088
1.211770629320496,-1.865639720509833,-0.020012757738390216,0.31729879075365175,-1.4920023680912693
1.2071716363339122,-1.9370374957296121,-0.01997848562320782,0.3035514285487544,-1.5014010728951321
1.2025818806165143,-2.0052821443574658,-0.01993243365851276,0.2898802986499488,-1.507878331402431
1.1980043162216536,-2.070391578043761,-0.019872474122884475,0.2762886899265571,-1.5111997786148452
1.1934424033614082,-2.1323845279947236,-0.019796333357510236,0.2627804400817864,-1.511115358221525
1.1889001445429774,-2.1912806788548025,-0.019701569411452843,0.24936000217974022,-1.507358048952441
1.1843821262522705,-2.247100818756202,-0.01958554615991253,0.23603251870199382,-1.4996425989092301
1.1798935670779207,-2.29986700724978,-0.0194454031822586,0.22280390298127042,-1.4876643297371543
1.1754403733610224,-2.349602762714639,-0.01927802044294446,0.20968092714792608,-1.471098106773321
1.1710292037186603,-2.3963332705093165,-0.019079976447160817,0.19667131454494327,-1.44959762183022
1.1666675441613592,-2.440085612438665,-0.01884749796415265,0.1837838326667956,-1.422795209508558
1.1623637960689968,-2.4808890168589315,-0.018576398491172257,0.1710283796833778,-1.3903025265843758
1.1581273801105623,-2.518775126615438,-0.018262001147388775,0.15841605298192032,-1.3517125821542573
1.1539688604628229,-2.5537782785401433,-0.017899039267735777,0.14595918114592718,-1.306603834347663
1.1499000956879761,-2.5859357827698446,-0.0174815239918017,0.1336712904166763,-1.2545473936429143
1.1459344258464836,-2.6152881817819065,-0.01700256158639458,0.12156696186210675,-1.1951188220554085
1.1420869106352418,-2.6418794566727897,-0.016454092424403564,0.10966151544991266,-1.1279166123453446
1.1383746418423037,-2.6657571307219925,-0.015826505775058716,0.09797043280400178,-1.0525901534118898
1.1348171672804375,-2.686972197306055,-0.015108055632473742,0.08650840705739453,-0.9688807049590167
1.1314370859095657,-2.7055787729175904,-0.014283956288150754,0.07528790260811825,-0.8766792095968748
1.1282609102846046,-2.721633355175733,-0.013334962189771538,0.06431716050615109,-0.7761036820980103
1.1253203512862928,-2.735193573535909,-0.012235116056417316,0.053597781756273485,-0.6675944498903937
1.1226542778967394,-2.74631640729217,-0.010948130809263597,0.0431225117764024,-0.5520145071856623
1.1203117864885594,-2.755056104577257,-0.009421359696649064,0.032874855920014,-0.43072174714690137
1.1183572444468524,-2.7614626266333175,-0.007574658057325533,0.022834031524008872,-0.3055525496220001
1.1168795965910954,-2.7655827547727796,-0.0052744537318651485,0.012993169688699176,-0.17863864551152622
1.1160152977919986,-2.767470487352398,-0.002241187999410973,0.003421896221021679,-0.052003422481763845
