x,y,v_x,v_y,omega
2.375,32.48,0.0,2.923076923076923,-8.0
2.37346968011015,31.930774174877826,-0.016108630419471207,2.8582475518932937,-7.531641117288876
2.3690860232205075,31.39362681737194,-0.03003512631361,2.7959351586949857,-7.104084011423761
2.3622366797901835,30.86809578141173,-0.04206322558453998,2.7359704829914633,-6.7126496173037955
2.353259260294467,30.353749463286853,-0.05243592700195038,2.6782012867440734,-6.353304460169153
2.342448446525924,29.850183794169872,-0.06136211266692228,2.6224899671188635,-6.022557065687969
2.330061961228741,29.357019645653327,-0.06902194309289376,2.568711596213205,-5.7173733986678235
2.3163256046275693,28.873900575750177,-0.07557128428786226,2.5167522975041345,-5.435107370818909
2.30143752302524,28.40049085791634,-0.08114536415770886,2.4665078902204867,-5.173443381882011
2.285571841473147,27.93647374721713,-0.0858618100748492,2.417882748718577,-4.9303485433541745
2.26888176687467,27.481549946687576,-0.08982318569859492,2.3707888358030327,-4.704032747671411
2.251502247855271,27.035436243888167,-0.09311911976876308,2.325144877874956,-4.492915134985025
2.2335522619468455,26.59786429311447,-0.0958281003199275,2.2808756565850232,-4.295595807605206
2.2151367880848394,26.16857952303573,-0.09801899296434684,2.2379113968753703,-4.110831872288887
2.196348512363501,25.747340152977806,-0.09975233041816231,2.1961872353133143,-3.9375170697582873
2.1772693068840248,25.333916303827227,-0.1010814114710593,2.155642755745428,-3.774664391496128
2.15797151494467,24.928089191765338,-0.10205324052215159,2.1162215817481105,-3.6213911950630187
2.1385190704428596,24.52965039485761,-0.10270933318111361,2.0778710172805814,-3.4769064176815547
2.1189684749419437,24.138401184010576,-0.10308640893379233,2.040541728477732,-3.340499558703074
2.0993696522096807,23.754151911034562,-0.10321698824792004,2.0041874607434256,-3.2115311586573503
2.079766697013001,23.376721447566602,-0.10312990855923881,1.9687647862877493,-3.089424548813592
2.0601985324370506,23.00593666945487,-0.10285077118760533,1.934232878046308,-2.973658682806982
2.040699487893045,22.641631981916724,-0.10240232927561012,1.9005533065657245,-2.8637618926543893
2.021299808214751,22.28364888138104,-0.10180482523274872,1.8676898569677964,-2.759306436757129
2.0020261027579576,21.931835550432886,-0.1010762848387639,1.8356083635390927,-2.659903728335893
1.9829017421628343,21.586046482710756,-0.10023277405726803,1.8042765598517616,-2.5652001500064316
1.9639472093765606,21.24614213497598,-0.09928862369298258,1.7736639426195597,-2.474873374553553
1.9451804106310984,20.911988603891622,-0.09825662625925181,1.743741647742121,-2.3886291239295283
1.9266169513023774,20.58345732532218,-0.09714820877991463,1.7144823371993807,-2.3061983085194004
1.9082703809208938,20.26042479420299,-0.0959735847093879,1.6858600956341454,-2.2273344971250055
1.8901524110420684,19.94277230323481,-0.09474188769930028,1.657850335609865,-2.1518116752009426
1.8722731092029223,19.63038569883942,-0.0934612895548685,1.630429710657417,-2.0794222548562247
1.854641071777428,19.323155152970337,-0.092139104397705,1.603576035332941,-2.0099753051999976
1.8372635781860902,19.02097494951156,-0.09078188077426874,1.5772682116015386,-1.9432949759101308
1.820146728607319,18.72374328411997,-0.08939548321279805,1.5514861609414998,-1.879219090564267
1.803295567071777,18.431362076475423,-0.08798516452975086,1.5262107616326763,-1.817597889396817
1.7867141915901112,18.14373679399884,-0.08655563001409904,1.5014237907524064,-1.7582929038173754
1.770405852764144,17.860776286184198,-0.08511109446976517,1.4771078704543814,-1.7011759473166963
1.754384946851804,17.58239855507347,-0.08353002039697158,1.4531840359743076,-1.6422288582175544
1.73866338920647,17.30852434608424,-0.08196006008023109,1.4297023744386337,-1.5858609479861516
1.7232388839568586,17.03907110477649,-0.08040315307357074,1.4066475340640279,-1.5319295946237876
1.7081087923787104,16.773959128621044,-0.07886096880167422,1.3840048465196344,-1.480301559808661
1.693270181414928,16.513111440824183,-0.0773349360802453,1.361760288184141,-1.4308522724605544
1.678719866889437,16.25645367126214,-0.07582626945124088,1.339900444047876,-1.3834651743792026
1.6644544519860451,16.003913944043145,-0.07433599268972436,1.3184124740467926,-1.3380311219471064
1.6504703614998126,15.755422771253365,-0.072864959796935,1.2972840816350943,-1.294447838529742
1.6367638723121607,15.510912952478034,-0.07141387375729645,1.2765034844210044,-1.252619412773254
1.6233311404912618,15.270319479720957,-0.06998330330479659,1.256059386706102,-1.212455838501323
1.6101682253753,15.033579447374503,-0.06857369791585453,1.2359409537828954,-1.17387259235719
1.5972711109573052,14.800631966918608,-0.06718540122093182,1.216137787858111,-1.1367902457308996
1.5846357248558136,14.57141808605142,-0.06581866300529465,1.1966399054807009,-1.101134107861869
1.5722579551250506,14.345880711976179,-0.06447364995010718,1.1774377163639473,-1.0668338973182083
1.560133665131221,14.123964538589064,-0.06315045524809881,1.1585220035004118,-1.0338234393314853
1.548258706697406,13.905615977331216,-0.061849107213112556,1.1398839044769409,-1.0020403867128709
1.536628931698143,13.69078309148497,-0.06056957698965653,1.1215148939046011,-0.9714259622973421
1.5252402022657172,13.479415533709926,-0.05931178545693027,1.1034067668853567,-0.9419247210599581
1.5140883997532169,13.271464486628673,-0.05807560941149205,1.0855516234436027,-0.9134843302248199
1.5031694325842824,13.066882606285173,-0.056860887103610036,1.0679418538563918,-0.8860553658455793
1.492479243105985,12.865623968310782,-0.05566742319425507,1.0505701248213948,-0.8595911244783034
1.4820138135492413,12.667644016644143,-0.05449499319252165,1.0334293664063794,-0.8340474486949861
1.4717691711903966,12.472899514661346,-0.053343347426897836,1.0165127597283163,-0.8093825653005956
1.4617413927980172,12.281348498582311,-0.05221221459814853,0.9998137253141659,-0.7855569352196878
1.451926608440321,12.09295023302806,-0.05110130495654707,0.9833259120990064,-0.7625331141115345
1.4423309482456403,11.907882379840466,-0.04990564446114343,0.9647567530335713,-0.7858863135790796
1.4329573202968875,11.726332103431087,-0.04876412342046577,0.9462987881177892,-0.8108467777816399
1.4237955940799627,11.548278554123321,-0.047675099915586286,0.9279490993323889,-0.8372973504802379
1.4148359530199892,11.37370142513986,-0.04663691124202771,0.9097048899672093,-0.8651232080255825
1.4060688980720366,11.202580929919407,-0.04564787768379012,0.8915634807744179,-0.8942115957390817
1.3974852506327735,11.034897780122837,-0.04470630588739899,0.8735223065578853,-0.9244515690179975
1.389076154846494,10.870633164246634,-0.04381049186291062,0.8555789131916206,-0.9557337380361892
1.3808330793741033,10.709768726762412,-0.04295872363594006,0.8377309550633298,-0.9879500149143983
1.372747818689347,10.552286547701868,-0.04214928357202204,0.8199761929424119,-1.020993362228003
1.3648124939627693,10.398169122606205,-0.04138045039195379,0.8023124922750907,-1.0547575417054313
1.357019553590587,10.247399342758342,-0.0406505008941774,0.7847378219129426,-1.0891368619467037
1.3493617734228571,10.099960475614552,-0.039957711397713876,0.7672502532848665,-1.1240259239585266
1.3418322567429937,9.95583614534996,-0.03930035891663886,0.7498479600266168,-1.1593193632595753
1.3344244340488294,9.81501031342922,-0.038676722074565,0.7325292180864302,-1.1949115872565554
1.3271320626840666,9.677467259109648,-0.03808508176504317,0.7152924063301092,-1.230696506527796
1.3199492263680748,9.543191559779235,-0.03752372156118666,0.6981360076742363,-1.2665672585758352
1.3128703346716246,9.412168071025881,-0.036990927875129725,0.6810586107820953,-1.3024159225230894
1.3058901224863007,9.284381906327056,-0.0364849898651237,0.664058912363438,-1.338133223124545
1.2990036495360278,9.159818416240501,-0.03600419908511626,0.6471357201266044,-1.3736082223578467
1.292206299980433,9.038463166966697,-0.03554684886851476,0.6302879564397739,-1.4087279967235886
1.2854937821616501,8.920301918142009,-0.03511123343446287,0.6135146627674624,-1.4433772982466633
1.2788621285487511,8.805320599708,-0.03469564670131515,0.5968150049589345,-1.4774381970130424
1.2723076959372637,8.693505287686573,-0.034298380788026155,0.5801882794771505,-1.5107897029056854
1.2658271659653182,8.584842178672556,-0.033917724179822084,0.5636339206704145,-1.543307364019421
1.259417546012911,8.479317562834463,-0.033551959529729315,0.5471515092042442,-1.574862839039629
1.2530761705566758,8.376917795190163,-0.03319936106222012,0.5307407817883725,-1.605323440666916
1.2468007030595298,8.277629264896689,-0.03285819153931574,0.5144016423534472,-1.6345516469653945
1.2405891384827235,8.181438362261968,-0.03252669874285785,0.49813417485414385,-1.6624045773144063
1.234439806517328,8.088331443150302,-0.03220311141919931,0.48193865790024265,-1.6887334294657275
1.2283513756432125,7.9982947904125155,-0.03188563462412332,0.4658155814448821,-1.713382874069852
1.2223228581362828,7.911314571925232,-0.03157244439618921,0.44976566578969646,-1.736190402964042
1.2163536161594553,7.82737679477124,-0.031261681675680296,0.4337898831996965,-1.7569856275521476
1.210443369089776,7.746467255033945,-0.030951445373575373,0.4178894824560525,-1.7755895238099884
1.2045922022536821,7.668571482613043,-0.03063978448004537,0.40206601671135356,-1.7918136209035807
1.198800577265071,7.593674680395939,-0.030324689084284,0.38632137504763264,-1.8054591312291826
1.1930693441872298,7.521761657040322,-0.030004080156148784,0.37065781816939,-1.816316021042586
1.18739975577058,7.452816752538954,-0.029675797913849198,0.3550780186871029,-1.8241620229800055
1.1817934840547204,7.386823755650596,-0.02933758856888402,0.33958510645351836,-1.828761595025193
1.1762526396669855,7.323765812195138,-0.028987089196746127,0.32418271939340554,-1.8298648353322184
1.1707797942029003,7.2636253231338515,-0.02862181042520248,0.3088750601990927,-1.8272063694617238
1.1653780061398344,7.206383831298414,-0.02823911655443899,0.29366695912130497,-1.8205042370153022
1.1600508508187921,7.1520218956134265,-0.027836202614428714,0.2785639428259284,-1.8094588197622192
1.1548024551381775,7.100518951704192,-0.027410067707829538,0.2635723088502382,-1.7937518751458466
1.1496375377492034,7.051853157937355,-0.026957483755056133,0.24869920448486865,-1.773045770379388
1.1445614557435517,7.00600122627073,-0.026474958409697824,0.2339527077953859,-1.7469830572209701
1.1395802591085615,6.962938237885687,-0.025958690379672165,0.2193419067840127,-1.715186591617752
1.1347007546388936,6.9226374445818095,-0.025404514564199353,0.20487697009892394,-1.6772604935722628
1.1299305816083973,6.885070058532733,-0.02480783312523649,0.1905691988387366,-1.6327923714314587
1.125278302436752,6.850205035523828,-0.02416352657629327,0.17643104336025664,-1.5813574151273393
1.1207535130159396,6.818008860614281,-0.023465835748047392,0.1624760609507757,-1.5225252112984644
1.116366979583983,6.788445350806626,-0.022708200377812435,0.14871877912980702,-1.4558704664914648
1.1121308125103435,6.761475497377997,-0.02188303197628851,0.1351744148557612,-1.380989251866097
1.1080586928136056,6.737057381602629,-0.020981385884110526,0.1218583827797083,-1.2975228856687873
1.1041661757852008,6.7151462118328205,-0.01999247757278073,0.10878550953407781,-1.2051920586120792
1.1004711094334896,6.695694546156719,-0.018902957708389782,0.09596886600382948,-1.103844032973402
1.0969942261118322,6.678652778790742,-0.01769581409853106,0.08341815890119335,-0.9935151425740805
1.0937599974976566,6.663969969015216,-0.01634869762963158,0.07113773347274864,-0.8745082829336485
1.0907978927360296,6.6515950556886665,-0.014831352492758038,0.05912451206989391,-0.7474788244202727
1.0881442625676379,6.64147838607493,-0.013101596648207385,0.04736674702208675,-0.6135104199162905
1.0858452373332257,6.633573227000568,-0.011098668977184568,0.0358454537606844,-0.47414452933652884
1.0839614576359555,6.627836401198838,-0.008730590994080217,0.024542186257523198,-0.33131061479993595
1.0825769737630067,6.624226006511318,-0.005842923458012862,0.013461968347963316,-0.18710299684550763
1.0818225921873652,6.622689370969709,-0.0020979352329504536,0.002713142616335148,-0.04339294277105771
