x,y,v_x,v_y,omega
2.375,32.48,0.0,4.0,-2.979591836734694
2.3739732311330184,31.652598037664315,-0.009778751114109661,3.8800186889112536,-2.725615019667823
2.3710930324240795,30.84970224732305,-0.017651712780547398,3.7666078857674665,-2.504565554957757
2.366721913731942,30.069990569734376,-0.02397798904933289,3.659217615077052,-2.3110117947008724
2.3611546246397372,29.3122500108418,-0.029043811828809253,3.5573591362807964,-2.1405679529628836
2.35463176731505,28.575364686645297,-0.03307863888249657,3.4605963322573348,-1.9896676499928097
2.3473504337070232,27.858305520294607,-0.03626739547966314,3.3685385853682748,-1.855391471746004
2.3394725723604366,27.160121311535292,-0.03875985544021015,3.280834831387128,-1.735334538490872
2.3311316099573083,26.479930955674416,-0.040677881732438734,3.197168557764076,-1.6275039879176192
2.3224377218547794,25.816916632548462,-0.042121052577360575,3.117253567244989,-1.5302390212694874
2.313482049967196,25.170317819376763,-0.04317106063771882,3.040830367723598,-1.4421481070085147
2.3043400954058737,24.539426007489418,-0.043895173279638586,2.967663078822552,-1.3620593317489254
2.2950744604082276,23.92358002356826,-0.04434896955508432,2.8975367680456072,-1.2889808983696225
2.2857370743664003,23.322161872547362,-0.044578516557559865,2.830255146439135,-1.22206950930165
2.2763710087175655,22.734593032642113,-0.04462210866943762,2.7656385669441916,-1.1606049168712487
2.267011962576199,22.160331143818567,-0.04451166410548183,2.703522278994325,-1.1039693265713961
2.257689483453817,21.598867039906253,-0.04427385134577441,2.6437549011229677,-1.0516306414800758
2.24842797389426,21.049722081898967,-0.04393100160238977,2.5861970798988105,-1.0031287639298898
2.2392475243729515,20.51244575608724,-0.043501850981498294,2.530720308784333,-0.9580643434583321
2.2301646046401995,19.986613505761675,-0.04300214647328131,2.4772058847924474,-0.9160894921287677
2.2211926392889683,19.471824769505822,-0.042445142586065646,2.4255439843109037,-0.8769000897816741
2.212342488289066,18.967701202707968,-0.04184200979395494,2.375632842335336,-0.8402293801947325
2.203622849244199,18.47388506198171,-0.041202171585729586,2.327378021724263,-0.8058426200727435
2.195040594961621,17.99003773478938,-0.04053358348644235,2.2806917610598427,-0.773532590401497
2.1866010573971386,17.515838398787103,-0.039842964746724455,2.2354923913427633,-0.7431158170890717
2.178308267013435,17.050982797317637,-0.039135991288550574,2.191703813128347,-0.7144293773229105
2.170165154960839,16.59518211911764,-0.03841745683140558,2.1492550268716384,-0.6873281914637879
2.162173724174394,16.14816197172195,-0.03769140780140858,2.108079710230172,-0.6616827189286822
2.15433519441509,15.709661439272736,-0.03696125657291386,2.068115836905203,-0.6373769914177009
2.1466501254162185,15.27943221650509,-0.036229876749672166,2.0293053323104675,-0.6143069288116145
2.1391185215883057,14.857237811606442,-0.035499683516164726,1.9915937619623794,-0.5923788927219914
2.131739921156929,14.442852811455001,-0.03477270154456561,1.9549300490037222,-0.5715084404939376
2.1245134721320467,14.036062203449216,-0.03405062250193238,1.919266217718056,-0.5516192488156886
2.117437997115669,13.63666074875988,-0.03333485384452177,1.8845571602756157,-0.5326421812727162
2.1105120486310236,13.244452402381242,-0.03262656029495644,1.8507604242828233,-0.5145144784273341
2.1037339563882305,12.859249775837121,-0.03192669916021628,1.8178360189945175,-0.497179052490422
2.0971018676787683,12.480873638821492,-0.03123605045370947,1.7857462382971803,-0.48058387152464277
2.090613781905531,12.10915245642752,-0.03055524262474103,1.754455498788288,-0.4646814204937936
2.0842675801004025,11.74392195895081,-0.029884774566958146,1.723930191466074,-0.4494282284430002
2.0780610501516747,11.385024741547394,-0.029225034468545547,1.6941385457093334,-0.43478445273340777
2.071991908354909,11.032309891288879,-0.028576315976842237,1.66505050437176,-0.4207135126225142
2.0660578178094395,10.685632639390885,-0.027938832075248308,1.6366376089424517,-0.4071817656255571
2.0602564041056945,10.344854036599141,-0.027312727008036455,1.6088728938360453,-0.3941582210534997
2.0545852686834922,10.009840649904035,-0.026698086536749013,1.581730788974492,-0.3816142859309786
2.0490420001864473,9.680464278921217,-0.026094946768437034,1.5551870299094703,-0.3695235391790249
2.0436241840910028,9.356601690425528,-0.025503301759607848,1.5292185748113694,-0.357861530523689
2.0383294108489793,9.038134369659847,-0.024923110069186356,1.5038035277189332,-0.34660560108032834
2.033155282748867,8.724948287161425,-0.024354300408075704,1.4789210675041304,-0.33573472297859297
2.028106154663268,8.4169340578725,-0.02373263374048401,1.4545477828665936,-0.3234014653483373
2.0231857867821175,8.113986332104805,-0.023128012746666624,1.4306686530162083,-0.31164613952262527
2.0183906421057665,7.816003226489489,-0.022540031790007745,1.4072656861772634,-0.3004347160728692
2.013717269746574,7.522886547684095,-0.021968276392775897,1.3843217310169784,-0.28973554951797287
2.0091623064303143,7.234541621037863,-0.021412326619224677,1.361820427518567,-0.27951918489112787
2.0047224773427286,6.950877129215964,-0.020871759929212017,1.3397461612614154,-0.2697581820879303
2.0003945964246164,6.6718049600958445,-0.02034615357661738,1.3180840208349784,-0.26042695617371187
1.996175566204346,6.397240063303698,-0.019835086616432573,1.2968197581378416,-0.25150163203347825
1.992062377244193,6.127100314808974,-0.019338141575499998,1.2759397513357227,-0.24295991192810037
1.9880521072661697,5.861306389040134,-0.018854905834246472,1.2554309702722752,-0.23478095467875953
1.9841419200137507,5.599781638026357,-0.018384972760220362,1.2352809441446573,-0.2269452653409789
1.9803290638979218,5.342451977107594,-0.017927942628624356,1.2154777312721565,-0.21943459435235388
1.9766108704690943,5.089245776789923,-0.01748342336020952,1.1960098908009045,-0.2122318452464422
1.9729847527504842,4.840093760354719,-0.0170510311027436,1.1768664562010513,-0.20532099012103
1.9694482034634337,4.594928906859,-0.01663039067869025,1.158036910424837,-0.19868699213372992
1.9659987931707126,4.353686359190874,-0.01622113591865308,1.139511162604935,-0.19231573437296395
1.9626341683600188,4.1163033368682065,-0.015822909897478935,1.1212795261823694,-0.18619395451902299
1.9593520494865835,3.882719053291016,-0.015435365087618643,1.103332698362314,-0.18030918476910632
1.9561502289909358,3.652874637178524,-0.015058163442359227,1.0856617408042806,-0.17464969655292362
1.9530265693054063,3.426713057940706,-0.01469097641982618,1.068258061460657,-0.16920444961236725
1.9499790008608218,3.2041790547514815,-0.014333484957170019,1.0511133974843487,-0.1639630450606163
1.947005520102997,2.9852190691067158,-0.013985379403066335,1.0342197991324749,-0.15891568207340465
1.9441041875270426,2.769781180664939,-0.013646359415545588,1.017569614598718,-0.1540531178985975
1.941273125736134,2.557815046182302,-0.013316133831204323,1.001155475712099,-0.1493666309001234
1.938510517530201,2.349271841365841,-0.012994420511013356,0.9849702844446631,-0.14484798637910515
1.9358172628160735,2.1442427934751933,-0.012655624385440956,0.9676873145138871,-0.16667473468325672
1.9331921797077911,1.942831493911477,-0.012345167122010284,0.9505155384738736,-0.19026286131036002
1.9306293338906964,1.7450149122453382,-0.012062888278891518,0.9334519059655405,-0.21550790826794278
1.9281228339814473,1.550770646453735,-0.01180853942824197,0.9164934825259251,-0.24230809207252588
1.9256668491829136,1.3600768990716503,-0.011581791986364604,0.8996374449224988,-0.2705640833321715
1.923255625361046,1.172912454284706,-0.011382244412374787,0.8828810768579299,-0.30017879246493007
1.9208834996716257,0.989256655886372,-0.01120942882019837,0.8662217650309779,-0.3310571607159063
1.9185449138557884,0.809089386026276,-0.011062817044919583,0.8496569955413805,-0.3631059556508533
1.9162344263149742,0.6323910446784105,-0.01094182620093061,0.8331843506287535,-0.3962335703137345
1.9139467230684488,0.4591425297599372,-0.010845823765978433,0.8168015057376753,-0.4303498252395168
1.9116766276897077,0.28932521783263354,-0.010774132222031739,0.8005062269033019,-0.46536577251144484
1.9094191103119023,0.12292094532011077,-0.010726033280876119,0.7842963684540828,-0.5011935010440254
1.9071692957868667,-0.04008800982576588,-0.010700771719464406,0.7681698710304441,-0.5377459422586649
1.9049224710773587,-0.19971894607563456,-0.010697558847276804,0.7521247599207054,-0.5749366752980359
1.9026740919577425,-0.3559887559577035,-0.010715575625258022,0.7361591437180389,-0.6126797308974035
1.900419789094497,-0.5089139434451226,-0.010753975453271865,0.7202712133049911,-0.6508893929958415
1.898155373574659,-0.6585106411655204,-0.010811886640422711,0.7044592411750151,-0.6894799971269524
1.8958768419475633,-0.8047946275047835,-0.010888414570012625,0.6887215811036573,-0.728365724576706
1.8935803808430398,-0.9477813436801483,-0.010982643568305613,0.6730566681855445,-0.7674603912345892
1.8912623712275867,-1.0874859108616377,-0.011093638483628612,0.6574630192572058,-0.8066772299925327
1.8889193923589453,-1.2239231474253032,-0.011220445979621935,0.6419392337300915,-0.8459286654630909
1.8865482254990042,-1.3571075864275812,-0.011362095543627451,0.626483994863012,-0.8851260796930009
1.8841458574450587,-1.4870534933966084,-0.011517600208235229,0.6110960715086976,-0.9241795674393384
1.8817094839402038,-1.6137748845444406,-0.011685956980859596,0.5957743203753925,-0.9629976794517051
1.8792365130250652,-1.7372855455132594,-0.011866146972840498,0.5805176888514569,-1.0014871520638255
1.8767245683952456,-1.857599050779811,-0.01205713521591747,0.5653252184490202,-1.0395526212401034
1.8741714928318298,-1.9747287838548147,-0.012257870149947718,0.5501960489319582,-1.0770963190456067
1.8715753517761406,-2.088687958429098,-0.012467282761376467,0.5351294232040674,-1.1140177503101196
1.8689344371247456,-2.1994896406352993,-0.012684285347148348,0.5201246930454925,-1.1502133470370368
1.8662472713265883,-2.3071467726140256,-0.012907769873396271,0.5051813257994915,-1.1855760978649406
1.8635126118711933,-2.4116721975963884,-0.013136605892270737,0.49029891212779564,-1.219995149623287
1.8607294562652792,-2.5130786867418067,-0.013369637973577733,0.47547717497145214,-1.2533553777341624
1.8578970476050154,-2.6113789680007358,-0.013605682600361843,0.4607159798755172,-1.2855369219014983
1.8550148808627251,-2.7065857573080336,-0.013843524469069978,0.446015346860683,-1.3164146832015433
1.8520827100203157,-2.798711792454,-0.014081912125305131,0.4313754640533092,-1.3458577783511991
1.849100556197358,-2.8877698700279666,-0.014319552855246609,0.41679670331782304,-1.373728946596368
1.8460687169398196,-2.9737728858844434,-0.014555106740355744,0.40227963817245843,-1.3998839043502547
1.8429877768563645,-3.056733879645222,-0.014787179768740093,0.3878250643111447,-1.4241706424517273
1.8398586198132272,-3.1366660838235134,-0.015014315880186849,0.37343402310117363,-1.4464286607518633
1.8366824429264947,-3.213582978239316,-0.015234987802979114,0.3591078284778729,-1.4664881347406526
1.833460772622726,-3.287498350489372,-0.015447586518626436,0.34484809771312663,-1.4841690091961208
1.830195483075964,-3.358426363341458,-0.015650409164823614,0.33065678659247216,-1.4992800145231147
1.826888817372252,-3.426381630040865,-0.015841645156243044,0.31653622959238503,-1.5116176027663726
1.8235434118029556,-3.491379298646507,-0.016019360265626417,0.3024891856994602,-1.52096480255149
1.8201623237470796,-3.553435146652369,-0.016181478361761474,0.2885188905468312,-1.5270899958958948
1.816749063672606,-3.612565687291962,-0.016325760442749762,0.2746291155445376,-1.5297456256261133
1.813307631870794,-3.668788289059698,-0.016449780526890417,0.260824234624355,-1.5286668510445265
1.8098425606401127,-3.7221213100971724,-0.016550897860548777,0.2471092990658627,-1.5235701829883341
1.8063589627651688,-3.772584249157539,-0.016626224757965366,0.23349012055668697,-1.5141521496919166
1.8028625873018793,-3.820197914833223,-0.01667258917812368,0.2199733620688712,-1.5000880751025725
1.7993598839011549,-3.864984614541818,-0.016686490828776893,0.20656663515585755,-1.4810310962121913
1.795858077208519,-3.9069683643027986,-0.016664049101088096,0.19327860066299804,-1.456611612440189
1.7923652533142267,-3.946175119434322,-0.01660094036836336,0.1801190672562783,-1.4264374581442942
1.7888904608767993,-3.9826330246970443,-0.016492320940468323,0.16709907810298008,-1.3900952332919718
1.7854438305351288,-4.016372679722515,-0.016332729932583643,0.154230969758655,-1.3471534372545246
1.7820367177832002,-4.047427411220191,-0.016115962942928067,0.14152837783822714,-1.297168353373092
1.7786818769822448,-4.075833536659374,-0.01583490182807551,0.12900615015399391,-1.2396940600318271
1.7753936782586515,-4.1016305938181645,-0.015481276491859564,0.1166801085011238,-1.174298529269395
1.7721883857376346,-4.124861495573896,-0.015045318946396333,0.10456657488679585,-1.1005885256638348
1.7690845266406086,-4.145572548655956,-0.014515243882423078,0.09268154970423571,-1.0182468657885064
1.7661033990838884,-4.163813249405614,-0.013876447133960055,0.08103940981629233,-0.9270862595106114
1.7632697965668935,-4.179635744058693,-0.013110243504084438,0.06965101545110479,-0.8271236644915656
1.7606130766718997,-4.193093831749046,-0.012191850733952599,0.058521248266559946,-0.7186761441340749
1.7581687840772344,-4.204241433637925,-0.011087126358097934,0.04764638877040969,-0.6024705283657039
1.7559811857333036,-4.213130628108203,-0.009747143584100795,0.0370126061846192,-0.47974076186522885
1.7541073943893601,-4.219809795351132,-0.00809848826297816,0.026598510414673218,-0.3522578701842345
1.7526246904835836,-4.224323398584659,-0.00602250131584624,0.016388187047479782,-0.22220960494665623
1.751646660297196,-4.226717686990483,-0.0032920718878442943,0.0064145596746711265,-0.09184981097856182
