x,y,v_x,v_y,omega
2.375,32.48,0.0,2.1538461538461537,-5.673469387755102
2.3742475317129457,32.07454997316754,-0.0079207188110991,2.114048865442842,-5.416421364715809
2.3720723922988207,31.676554198803498,-0.014975485548109051,2.0753803383891984,-5.175991445195263
2.3686307964685893,31.285803679366776,-0.021251838980641268,2.0377830241026342,-4.950731895131823
2.3640632501328094,30.90209994227976,-0.02682759613283319,2.0012036820764356,-4.739348468975189
2.358496281431188,30.525254264223406,-0.0317720744105544,1.965592929043102,-4.540681406033234
2.3520439561922646,30.155086975303856,-0.03614713863074151,1.9309048490574243,-4.3536891274626885
2.3448092083724323,29.791426832454526,-0.0400081015780174,1.897096654619722,-4.1774341980757335
2.3368850110895583,29.43411045314115,-0.04340450139960662,1.8641283907842243,-4.011071196264848
2.3283554098369676,29.082981801829867,-0.04638077494345206,1.8319626756503402,-3.8538361984784806
2.3192964361522166,28.73789172282231,-0.048976842790768416,1.8005644717976423,-3.7050376353725123
2.3097769172781373,28.398697514006198,-0.05122861904164608,1.7699008841614359,-3.5640483177162454
2.2998591950792378,28.06526253685358,-0.05316845673624101,1.739940980602939,-3.430298463407696
2.2895997655769604,27.73745585865217,-0.054825538024573836,1.7106556320435156,-3.303269584137007
2.279049848873312,27.415151923502215,-0.05622621675067215,1.682017369534967,-3.182489112557227
2.268255897888975,27.098230249071626,-0.05739431992656144,1.654000256050154,-3.0675256692366943
2.257260053205116,26.786575146490662,-0.05835141358774386,1.6265797711179184,-2.957984883929036
2.246100550332345,26.48007546109726,-0.05911703770458605,1.5997327067073375,-2.8535056983992906
2.2348120849069044,26.178624332025073,-0.059708914142154956,1.5734370729999108,-2.753757088659827
2.2234261406098823,25.882118968866187,-0.060143131089653454,1.5476720128831076,-2.658435153374426
2.211971284000876,25.590460443846908,-0.06043430689988989,1.5224177241619015,-2.567260522685765
2.200473429937427,25.303553498132427,-0.06059573587325461,1.4976553886221218,-2.4799760480548
2.188962301928997,25.02131245275281,-0.0605740326365347,1.4733029837949077,-2.3931764447963206
2.1774635543568275,24.743654694766725,-0.060465415491568565,1.4494102581638948,-2.3102344617318797
2.165992882728368,24.47049443533769,-0.06027849638695243,1.4259608937206583,-2.230933514231975
2.1545644199805625,24.20174891445526,-0.06002111148468393,1.40293932609442,-2.155071504698725
2.1431908770184434,23.937338262021843,-0.05970039337972529,1.3803306995204865,-2.0824596955095136
2.1318836702156143,23.67718536718104,-0.05932283612373895,1.3581208251195815,-2.0129216818594067
2.1206530371701318,23.421215755286184,-0.058894353828708584,1.336296142194672,-1.9462924545502907
2.109508141870555,23.169357471960854,-0.05842033353525899,1.3148436822824834,-1.8824175438777375
2.0984571703043415,22.921540973750254,-0.057905682951199564,1.2937510357238342,-1.8211522367346564
2.0875074174323083,22.677699024905124,-0.057354873596518884,1.2730063205406692,-1.7623608599019949
2.0766653663567527,22.43776659987804,-0.05677197983037938,1.2525981534286674,-1.7059161232465627
2.0659367604255356,22.20168079114649,-0.05616071418243444,1.2325156226929048,-1.651698517207707
2.0553266689386223,21.96938072200846,-0.05552445936402033,1.2127482629705666,-1.5995957595394197
2.044839547056147,21.740807464024314,-0.05486629729361182,1.1932860315993996,-1.5495022867922792
2.0344792904469626,21.515903958804522,-0.05418903543464494,1.1741192865036922,-1.501318786478805
2.024249285163053,21.294614943865948,-0.05349523071177674,1.1552387654812715,-1.454951766273622
2.0141524531773176,21.076886882300606,-0.05278721124333109,1.1366355667854773,-1.4103131569625555
2.0041912939794533,20.86266789601997,-0.052067096102607846,1.1183011309054571,-1.367319946177863
1.9943679225863473,20.65190770235558,-0.05133681329850621,1.1002272234565575,-1.3258938402449847
1.9846841042891017,20.444557553812686,-0.05059811614618555,1.0824059191001705,-1.2859609517235848
1.9751412864280233,20.240570180788346,-0.049852598180954444,1.0648295864192252,-1.2474515104558352
1.9657406274592997,20.03989973707876,-0.04910170675297958,1.0474908736816833,-1.2102995961410208
1.9564830235522481,19.842501748013152,-0.04834675542651073,1.030382695429971,-1.1744428906403452
1.9473691329337115,19.64833306106257,-0.047588935294926506,1.0134982198393274,-1.1398224483816999
1.9383993981760683,19.457351798782533,-0.04682932531184412,0.9968308567926212,-1.1063824833832423
1.929579272458289,19.269734878566737,-0.04601410329635994,0.9780840928473724,-1.1189375112965139
1.9209110442207435,19.085668555461417,-0.045230404467275144,0.9594561503664937,-1.1333904885762465
1.9123887644072013,18.905130557603506,-0.04447780409632809,0.9409438270852175,-1.1496152305257514
1.9040065729557667,18.72809920870997,-0.04375579012929997,0.92254405600462,-1.167488286914091
1.8957587146767176,18.55455340281389,-0.04306377070279451,0.9042539007962157,-1.1868886672267918
1.8876395537607706,18.38447257982895,-0.04240108104401553,0.8860705516768171,-1.2076975716779197
1.8796435870311337,18.21783670185404,-0.0417669897942696,0.8679913217432995,-1.2297981268667222
1.8717654560453219,18.05462623013122,-0.04116070479322388,0.8500136437600819,-1.25307512497098
1.8639999581460085,17.894822102571453,-0.040581378357443035,0.8321350673953596,-1.2774147653702719
1.8563420565541295,17.73840571176288,-0.04002811208338678,0.8143532569054378,-1.3027043975854815
1.8487868895920327,17.585358883376216,-0.03949996120184306,0.7966659892699732,-1.3288322644058772
1.8413297791196284,17.435663854881035,-0.03899593850767547,0.7790711527845549,-1.3556872440517942
1.833966238262253,17.289303254485013,-0.03851501788575056,0.7615667461209208,-1.383158590189042
1.826691978505266,17.14626008020595,-0.03805613745095542,0.7441508778692413,-1.4111356685703282
1.8195029162272824,17.006517678983137,-0.03761820231729132,0.7268217665813821,-1.4395076890288578
1.8123951787413697,16.870059725730705,-0.037200087008108285,0.7095777413389445,-1.4681634314894338
1.8053651099115222,16.736870202230357,-0.03680063751659996,0.6924172428752449,-1.4969909645924209
1.798409275410291,16.60693337575501,-0.036418673022677796,0.675338825286324,-1.5258773554454517
1.791524467682557,16.480233777307404,-0.03605298726925751,0.6583411583726545,-1.5547083689263963
1.784707710680188,16.35675617934925,-0.03570234959778435,0.6414230306605558,-1.5833681548586425
1.7779562644326499,16.23648557288625,-0.035365505639460795,0.6245833531605338,-1.6117389212661108
1.7712676295196685,16.119407143762746,-0.03504117765507979,0.6078211639289697,-1.6397005917908825
1.7646395515137423,16.00550624800605,-0.03472806451256522,0.5911356335099285,-1.6671304452215785
1.758070025462762,15.894768386044785,-0.03442484128722779,0.5745260713454904,-1.6939027349370417
1.7515573004862715,15.787179175607633,-0.034130158465303685,0.5579919332560863,-1.719888285919786
1.745099884563051,15.682724323088138,-0.033842640726490736,0.5415328301070115,-1.7449540668407901
1.738696549592828,15.581389593137565,-0.03356088527585707,0.5251485377937525,-1.7689627345671888
1.7323463368211112,15.483160776220931,-0.03328345968958325,0.508839008697145,-1.791772148305624
1.7260485627235223,15.388023653840623,-0.03300889923240406,0.4926043847797902,-1.8132348504787212
1.7198028254547089,15.295963961097367,-0.03273570359721111,0.47644501251763666,-1.833197511357907
1.7136090119771286,15.206967346219106,-0.03246233300889865,0.46036145988512744,-1.8515003344676801
1.7074673059969108,15.121019326644358,-0.032187203624972814,0.4443545356385449,-1.8679764198699986
1.7013781968478683,15.03810524119758,-0.03190868215442104,0.428425311169644,-1.882451082682738
1.695342489480868,14.958210197839676,-0.03162507960347766,0.41257514522934585,-1.8947411246536552
1.689361315734576,14.881319016417375,-0.03133464404170193,0.39680571184752295,-1.9046540573998723
1.683436147085585,14.807416165771137,-0.031035552263466,0.3811190317970772,-1.9119872771713395
1.6775688091017968,14.736485694493794,-0.03072590019746196,0.3655175079644217,-1.9165271928997019
1.6717614978536204,14.66851115456334,-0.03040369188860635,0.35000396498772657,-1.9180483121246772
1.6660167985743648,14.603475517007084,-0.030066826840400202,0.3345816934991904,-1.9163122935320636
1.6603377069060308,14.541361078696514,-0.02971308545785174,0.31925449924363075,-1.9110669808298775
1.6547276531222566,14.48214935933235,-0.02934011226608853,0.30402675722127104,-1.9020454412897787
1.6491905297904776,14.42582098767167,-0.028945396489478525,0.28890347078586964,-1.8889650445554156
1.6437307234264553,14.372355576096027,-0.02852624944759963,0.27389033527355383,-1.871526634764597
1.6383531508153473,14.321731582753433,-0.028079778037747437,0.25899380517481774,-1.8494138737465537
1.6330633008384923,14.27392616077741,-0.027602853297567172,0.24422116299383154,-1.8222928679672792
1.6278672828756844,14.228914994563603,-0.027092072626728834,0.22958058662521375,-1.7898122410595638
1.6227718831826197,14.186672123872633,-0.026543713616057146,0.21508121012185,-1.7516038827300608
1.6177846311249677,14.14716975777447,-0.02595367646449008,0.20073316985881423,-1.7072847009873957
1.61291387786645,14.110378082361276,-0.02531741046727407,0.1865476239642732,-1.656459837508354
1.60816889118742,14.076265069014273,-0.02462981773304438,0.172536727056801,-1.5987279869843711
1.6035599717544573,14.044796294180877,-0.023885123666561255,0.15871353434738017,-1.5336897023050027
1.5990985986845965,14.01593478753767,-0.023076698121447255,0.14509179873899403,-1.4609598761632874
1.5947976161348438,13.989640933517979,-0.02219680240226484,0.13168561199459183,-1.380185958671975
1.5906714786375367,13.965872461695888,-0.02123622388517926,0.11850882823794227,-1.291073853063809
1.5867365821022683,13.944584573968452,-0.020183739643962844,0.10557420047188798,-1.1934236928859856
1.583011721451022,13.925730268662601,-0.019025319842840283,0.09289217116863793,-1.0871775343473984
1.5795187371739747,13.909260927741098,-0.017742935705023895,0.08046931221560215,-0.9724797783179069
1.5762834455802552,13.895127220431775,-0.01631276528149743,0.0683065541983191,-0.8497478088601299
1.5733369988501615,13.883280320795492,-0.014702463456329353,0.056397652499371995,-0.7197434798899809
1.570717911493561,13.873673298002256,-0.012866877139467334,0.04472890321890151,-0.5836247504476926
1.568475186498744,13.866262253814668,-0.01074075438492096,0.03328208822939655,-0.4429427601849661
1.5666735315165958,13.861006220753637,-0.008224034900849216,0.022044575570919614,-0.29954045408959495
1.565403751339133,13.85786341078893,-0.005142072230338397,0.011037634583909973,-0.1553166946828016
1.564813893950363,13.856773994981562,-0.001066952914610289,0.00042990023048797114,-0.011897101867551524
