x,y,v_x,v_y,omega
2.375,32.48,0.0,3.435897435897436,-2.8571428571428577
2.374322180610007,31.835176803037825,-0.007134940947292127,3.3517151637043865,-2.6644820963576152
2.3723948158991046,31.20600649363389,-0.013153108641154456,3.2711301984422887,-2.4913343914432096
2.369414157912471,30.59182843929293,-0.018222238586570585,3.193901952515203,-2.3351485968959174
2.3655471760490676,29.992025671745978,-0.022482833659780453,3.119811390084259,-2.193766281503528
2.3609362716123807,29.406021026333036,-0.026053002515872725,3.048658561630939,-2.0653532869008435
2.355703162123086,28.833273716495828,-0.02903236052933253,2.9802604892870255,-1.9483445085108795
2.349952094800047,28.273276282516818,-0.03150519023950142,2.914449342070999,-1.8413991046208131
2.343772515433466,27.725551864009148,-0.033543013619244964,2.8510708527465507,-1.7433639793951254
2.337241293142066,27.189651753927272,-0.035206694711281995,2.789982937588996,-1.6532438678156605
2.3304245814275357,26.665153198523274,-0.03654816544166814,2.73105448771625,-1.5701767165759877
2.3233793801813367,26.151657413083907,-0.03761184767621465,2.67416430638235,-1.4934133347986975
2.316154850864568,25.64878778771826,-0.03843582934239991,2.6192001711507933,-1.4223005038062801
2.308793427219916,25.156188261130488,-0.039052840601310534,2.5660580034572917,-1.3562669019464793
2.3013317560158524,24.673521843361506,-0.039491066809883166,2.514641130953076,-1.2948113303708357
2.2938014960319575,24.20046927103764,-0.03977482775743217,2.4648596303507726,-1.2374928274019854
2.286229998436014,23.736727780816786,-0.03992514693671117,2.416629740395055,-1.1839223392233647
2.2786408876200035,23.28200998854591,-0.03996023007392257,2.36987333614049,-1.1337556780003502
2.271054558252464,22.83604286319675,-0.039895868531755536,2.324517457008586,-1.0866875489233343
2.2634886016121394,22.39856678597492,-0.03974578031376827,2.2804938821685257,-1.0424464678960665
2.2559581720694895,21.969334686139028,-0.03952189908254785,2.2377387476830064,-1.0007904238600254
2.2484763027815005,21.548111246050745,-0.039234619738387204,2.1961922006147145,-0.9615031657318851
2.241054178184672,21.134672168829372,-0.03889300759665282,2.155798085926052,-0.9243910149422391
2.23370136965009,20.72880350272459,-0.038504976977892215,2.1165036625453757,-0.8892801216171389
2.2264260396545277,20.330301016966565,-0.03807744402802604,2.078259345433777,-0.8560140963361267
2.2192351189835473,19.9389696244167,-0.03761645777176798,2.0410184708806063,-0.8244519607574642
2.212134460785386,19.554622846836573,-0.037127312735190966,2.004737082594429,-0.7944663697175864
2.205128974712677,19.177082319027566,-0.03661464592490544,1.969373736447742,-0.7659420650793894
2.198222743902391,18.806177328476373,-0.036082520499159484,1.934889321985844,-0.7387745279347551
2.1914191271361987,18.441744387479982,-0.03553449809233756,1.9012468990288243,-0.7128688010099494
2.1847208481802083,18.08362683502311,-0.03497370144440268,1.8684115478856362,-0.6881384574780456
2.1781300740137177,17.73167446594681,-0.03440286872918426,1.8363502318648977,-0.6645046960111108
2.1716484834121803,17.385743185183017,-0.03382440076068297,1.8050316709118401,-0.6418955449364073
2.1652773271425865,17.045694685040264,-0.033240402077147055,1.7744262253276948,-0.6202451609004406
2.1590174808537794,16.711396143713408,-0.03265271675239817,1.744505788639202,-0.5994932095778304
2.1528694915948186,16.382719943358207,-0.03206295965771794,1.7152436887839768,-0.5795843177583374
2.1468336187671486,16.059543406221657,-0.03147254379143696,1.6866145968639352,-0.560467587661922
2.1409098702075986,15.74174854745402,-0.030882704203827487,1.6585944427953971,-0.5420961656151423
2.135098034006159,15.429221843349502,-0.030294518969220453,1.631160337252147,-0.524426858310933
2.1293977065827323,15.121854013871562,-0.029708927593167,1.6042904993577498,-0.5074197907995072
2.123808317478516,14.819539818417084,-0.029126747188060624,1.5779641896367493,-0.4910381011469762
2.118329151258735,14.522177863862318,-0.02854868670436993,1.5521616477818614,-0.4752476673720005
2.1129593668726248,14.229670424013566,-0.027975359465209942,1.5268640348365947,-0.4600168628473844
2.107698014772689,13.941923269658187,-0.027407294218326078,1.5020533794305448,-0.445316336848058
2.1025440520573233,13.658845508477135,-0.026844944890782672,1.4777125277384104,-0.4311188173518804
2.0975004158664357,13.380349909289098,-0.02624596238172232,1.4538200952935785,-0.4162077201317774
2.092569445558682,13.106352256204488,-0.025658988226209434,1.4303657266496719,-0.40194622560092585
2.0877488615773547,12.836770741012039,-0.02508400105091722,1.40733443327083,-0.38829859580294934
2.0830363918301344,12.571526341506893,-0.024520943656664632,1.3847118773096676,-0.3752314301969501
2.0784297780037657,12.310542701236955,-0.023969728199852682,1.362484336058118,-0.36271348841956597
2.073926780954376,12.053746015784789,-0.023430240741091235,1.3406386687015086,-0.35071552828009334
2.0695251852864005,11.801064925163871,-0.022902345237596423,1.3191622852028964,-0.3392101575282944
2.0652228032194246,11.55243041193945,-0.022385887046362404,1.2980431171594213,-0.3281716980886943
2.061017477830325,11.307775704713158,-0.021880695996789254,1.2772695904857645,-0.3175760615916158
2.05690708574763,11.067036186636784,-0.02138658908420842,1.2568305997918674,-0.30740063515210253
2.0528895393658337,10.83014930864492,-0.020903372829440645,1.236715484333027,-0.2976241764551628
2.0489627886393547,10.597054507118344,-0.020430845344022022,1.2169140054204142,-0.28822671730107996
2.045124822508759,10.367693125710439,-0.019968798135933285,1.1974163251891046,-0.27918947484932805
2.0413736700056306,10.142008341087724,-0.019517017686472463,1.1782129866289317,-0.27049476987516047
2.0377074010770175,9.919945092352833,-0.019075286825241556,1.1592948947909538,-0.26212595142029416
2.0341241271655544,9.701450013934224,-0.018643385927004735,1.1406532990891596,-0.2540673272792554
2.0306220015771097,9.486471371741544,-0.018221093951359603,1.1222797766232606,-0.24630409981671578
2.02719921966408,9.274959002399193,-0.01780818934369255,1.1041662164541097,-0.238822306659264
2.0238540188491254,9.066864255383045,-0.01740445081372021,1.0863048047684865,-0.23160876584816995
2.0205846785112507,8.862139937896938,-0.01700965800601274,1.0686880108747505,-0.22465102507836787
2.017389519753534,8.66074026233619,-0.016623592075218067,1.0513085739752226,-0.21793731468360775
2.0142669050695514,8.462620796195356,-0.016246036177230506,1.0341594906651497,-0.2114565040589372
2.011215237923521,8.267738414286548,-0.015876775886246947,1.0172340031117781,-0.2051980612397615
2.0082329622574093,8.076051253143238,-0.015515599546507775,1.0005255878704251,-0.19915201538202837
2.0053185619366727,7.88751866749228,-0.015162298566508494,0.9840279452975311,-0.19330892191089447
2.0024735189614447,7.702304786458434,-0.01478552222536534,0.965591855058743,-0.2300952779815843
1.9996964033349478,7.520583881266724,-0.014447273843022091,0.9472597785382155,-0.26815517887455503
1.9969799978115792,7.34233644201375,-0.014146468508227322,0.9290290557036279,-0.30738868494448224
1.994317294373909,7.167543454590341,-0.013881988730405845,0.9108971277006666,-0.3476974803245931
1.991701500042293,6.996186381736095,-0.01365268844449918,0.8928615339229757,-0.3889846563571163
1.989126041961086,6.828247144617837,-0.01345739662083708,0.8749199094270943,-0.43115449680234275
1.986584571834178,6.6637081048667,-0.013294920504512826,0.8570699826901363,-0.47411226389908695
1.984070969778188,6.502552047008631,-0.013164048505905163,0.8393095737105711,-0.5177639843299318
1.981579347657809,6.344762161222885,-0.013063552761243994,0.821636592455193,-0.5620162341174529
1.979104051964445,6.190322026362104,-0.01299219137943013,0.8040490376582825,-0.6067759214421635
1.9766396662964758,6.0392155931662685,-0.01294871038866526,0.7865449959820865,-0.6519500663285891
1.9741810134971416,5.891427167600611,-0.012931845393800129,0.7691226415511481,-0.6974455760919779
1.97172315750423,5.746941394244963,-0.01294032295263838,0.7517802358767367,-0.743169015373845
1.9692614049644417,5.605743239658459,-0.012972861676710782,0.7345161281917453,-0.7890263695188997
1.9667913066645277,5.4678179756392495,-0.01302817305922742,0.717328756221002,-0.83492279995783
1.964308658831052,5.333151162293632,-0.013104962029989285,0.7002166474170726,-0.8807623901587113
1.9618095043509771,5.201728630822757,-0.01320192723395738,0.683178420697411,-0.9264478805930842
1.9592901339661961,5.073536465927603,-0.013317761026895485,0.6662127887252627,-0.9718803910295332
1.9567470874967334,4.948560987724207,-0.013451149177975383,0.6493185607841695,-1.0169591283162136
1.9541771551496119,4.82678873305079,-0.013600770265409368,0.632494646304428,-1.061581077642485
1.9515773789734334,4.708206436036459,-0.013765294746996082,0.6157400591095881,-1.1056406750767123
1.9489450545225964,4.592801007787134,-0.013943383682867141,0.5990539224622637,-1.1490294589605394
1.9462777327998741,4.480559515028087,-0.014133687082629973,0.5824354750013989,-1.1916356974976212
1.943573222551898,4.371469157523546,-0.01433484184343331,0.5658840776779757,-1.2333439896053007
1.9408295929990536,4.2655172440718765,-0.014545469239141004,0.5493992218132886,-1.2740348357997422
1.9380451770895357,4.162691166849363,-0.014764171913678674,0.5329805384237093,-1.3135841755580429
1.9352185753769948,4.0629783738461285,-0.014989530323592225,0.5166278089787469,-1.3518628872454548
1.932348660632504,3.966366339103512,-0.01522009856578413,0.5003409777856369,-1.3887362463145536
1.9294345833147244,3.872842530422581,-0.0154543995161071,0.4841201662241759,-1.4240633370813316
1.926475778037378,3.7823943741676764,-0.015690919192801613,0.4679656890906009,-1.4576964129704344
1.9234719711907458,3.695009216735862,-0.015928100245435207,0.45187807334953634,-1.4894801997142173
1.9204231898942268,3.610674282201959,-0.01616433445476382,0.4358580796389093,-1.5192511356135852
1.9173297724804361,3.529376625578422,-0.016397954111453963,0.4199067269246429,-1.5468365426623463
1.914192380738309,3.4511030810483767,-0.016627222121461907,0.4040253207600294,-1.5720537221612063
1.9110120141738305,3.3758402044376545,-0.016850320662523652,0.3882154856686237,-1.5947089684928257
1.9077900265829402,3.3035742090865092,-0.01706533818895288,0.3724792022381745,-1.6145964951298233
1.9045281452727598,3.234290894163397,-0.017270254549787898,0.3568188495840746,-1.6314972679020547
1.9012284933155774,3.1679755643315097,-0.017462923946867444,0.34123725390946036,-1.6451777423513791
1.8978936152764305,3.1046129395351123,-0.017641055412574484,0.32573774394736144,-1.655388505084126
1.8945265069215178,3.0441870535201687,-0.01780219042861199,0.31032421410466204,-1.6618628240313316
1.891130649493727,2.986681139549212,-0.01794367723234321,0.2950011961159456,-1.6643151203851565
1.887710049237135,2.9320775016256064,-0.018062641258098863,0.2797739399219968,-1.6624393870855296
1.8842692829702676,2.8803573694286584,-0.01815595102471541,0.2646485042563934,-1.6559075971368538
1.8808135506571984,2.83150073511257,-0.018220178586541815,0.24963185696557755,-1.6443681727774488
1.8773487361205141,2.785486170195675,-0.018251553378554483,0.2347319842649095,-1.6274446280965416
1.873881477303903,2.7422906210509588,-0.018245907848932503,0.21995800673210536,-1.6047345597287141
1.8704192478625479,2.7018891821456776,-0.018198612586384808,0.205320297533996,-1.5758092525053407
1.866970452399757,2.6642548473852194,-0.018104497548255133,0.19083059468136784,-1.5402143036101192
1.8635445384841003,2.6293582420283492,-0.01795775419550034,0.1765020932857001,-1.4974718702075447
1.8601521298514712,2.597167341158123,-0.01775181035849219,0.16234949482196342,-1.4470854399079889
1.8568051872238287,2.5676471863432866,-0.01747916466932237,0.14838897691315023,-1.3885484477025123
1.8535172064747634,2.540759620919278,-0.017131159005049995,0.13463802755008628,-1.3213586596895543
1.8503034693107385,2.5164630775362333,-0.016697653247843138,0.12111506069248568,-1.245041047046825
1.8471813706754925,2.494712470586748,-0.016166542912640587,0.10783869667051346,-1.1591828665428154
1.8441708621441402,2.475459271398588,-0.015523020575278951,0.09482655794169424,-1.063485672599148
1.8412950756065047,2.458651873302234,-0.014748416662991523,0.0820934220199152,-0.9578394424822128
1.838581232965403,2.4442363766527073,-0.01381834798018479,0.06964864797511008,-0.8424224823650995
1.8360620162917827,2.432157912744067,-0.01269972226844943,0.05749307737899747,-0.717824367888828
1.8337776910176156,2.4223625187656026,-0.011345806933309825,0.04561633292061601,-0.5851731522150154
1.831779504983916,2.4147992578588777,-0.009687730263527216,0.03399693978174924,-0.44621834226745405
1.8301354703727966,2.409421541948383,-0.007617897221942722,0.022610596118184032,-0.30328300885976256
1.8289417608338798,2.406184855062083,-0.004947466345601277,0.011459792158646795,-0.1589785834727627
1.8283556031052748,2.4050304047700415,-0.001222615008136509,0.0006923161786230106,-0.01564312721588368
