x,y,v_x,v_y,omega
2.375,32.48,0.0,2.5128205128205128,-6.775510204081632
2.373364438753523,31.90870052526548,-0.014222271708496863,2.4550010066100763,-6.363164332882349
2.3686877955877574,31.35043152726461,-0.026444190602508334,2.39951201948444,-5.988160297015801
2.3613991070844875,30.804675629740636,-0.03693570942592564,2.3461914372457597,-5.646053323818059
2.351869940125346,30.27095080839863,-0.04592661195791418,2.294893965728203,-5.333034227055829
2.3404228540912215,29.748806801813732,-0.0536132665996882,2.2454887002274546,-5.04582388242856
2.32733845827145,29.23782202984697,-0.06016408835484681,2.1978571429617557,-4.781587724422569
2.312861329232523,28.737600927750808,-0.06572399024452069,2.1518915709179325,-4.53786596888115
2.2972049962055596,28.24777162385267,-0.07041803607689821,2.1074936803702236,-4.312516297529451
2.28055615957755,27.767983903643668,-0.07435445634057664,2.0645734518819796,-4.103666498122661
2.26307827460747,27.297907414532983,-0.07762715209490276,2.0230481925587402,-3.9096751167191957
2.244914606929805,26.83723007435919,-0.0803177842326159,1.9828417219959695,-3.72909860155372
2.2261908463967117,26.38565665362955,-0.08249752475080661,1.9438836756530846,-3.560663739168038
2.207017350002458,25.942907506863293,-0.08422853085139884,1.906108904923072,-3.403244429690557
2.18749107204588,25.508717432695114,-0.08556519051014842,1.8694569574088988,-3.2558420385993228
2.167697229588836,25.082834645810923,-0.08655517868153788,1.8338716241927824,-3.1175687108035754
2.1477107431142874,24.665019846534104,-0.08724035587975484,1.7993005434317224,-2.987633149547249
2.127597485662408,24.25504537610447,-0.08765753500615629,1.76569485160858,-2.8653284549390863
2.1074153683102543,23.852694447505066,-0.08783913762126394,1.73300887534278,-2.7500216904109887
2.08721528541552,23.457760443180334,-0.08781375711555457,1.7011998579157361,-2.641144904282483
2.067041939377467,23.07004627221838,-0.08760664321534237,1.670227715666462,-2.5381873810378885
2.0469345616291403,22.68936378059168,-0.08724011981358419,1.6400548202178882,-2.440688935329769
2.0269275440465453,22.315533208904796,-0.08673394612202612,1.6106458031463016,-2.348234092975914
2.007050992848965,21.948382692815677,-0.08610562950910801,1.5819673802373673,-2.260447028766579
1.9873312152951246,21.587747801904037,-0.08537069704602444,1.553988192907311,-2.1769871518751676
1.9677911479921786,21.233471113276163,-0.08454293167524504,1.5266786647263688,-2.0975452469575506
1.9484507343798305,20.885401816635586,-0.0836345779973471,1.5000108712786424,-2.0218400933346605
1.9293272578907126,20.54339534792696,-0.08265652190802468,1.4739584218398643,-1.9496154965373362
1.910471024742405,20.20732160179916,-0.08131072285986739,1.4484219792714492,-1.8725390004561708
1.891926664078829,19.877055495725262,-0.07994458725818501,1.423457203979819,-1.7993867176346499
1.8736981855911523,19.55246816459813,-0.0785639213303085,1.3990413275604623,-1.729908073076364
1.8557883465984792,19.233435843669724,-0.07717380904076193,1.3751527674691404,-1.6638715398302562
1.8381988085831935,18.919839604825405,-0.07577869543998263,1.3517710485684364,-1.6010629613533338
1.8209302756919454,18.61156511017821,-0.07438246013608717,1.328876730972406,-1.5412840414676507
1.8039826173319486,18.30850238160361,-0.07298848212475648,1.306451343589303,-1.4843509832071535
1.7873549767270984,18.010545584965516,-0.07159969704785175,1.2844773228289108,-1.4300932601555176
1.77104586706841,17.71759282790029,-0.07021864781030993,1.2629379559991234,-1.3783525058704904
1.7550532566934058,17.429545970129155,-0.06884752936363943,1.2418173289672694,-1.3289815087191759
1.7393746445551914,17.146310445361696,-0.06748822835996371,1.2211002777063042,-1.2818433009505534
1.7240071270903834,16.867795093936166,-0.06614235829053945,1.200772343385259,-1.236810332138722
1.7089474574628074,16.5939120054166,-0.06481129064490403,1.1808197306979482,-1.1937637182703058
1.6941920980443004,16.32457637043356,-0.06349618255950636,1.1612292691545458,-1.1525925587453936
1.6797372668928272,16.0597063411157,-0.06219800136634689,1.1419883770877368,-1.1131933144330572
1.6655789788995223,15.799222899513449,-0.060917546401523005,1.1230850281492164,-1.0754692406867308
1.651713082198547,15.543049733465512,-0.059655468389566306,1.1045077200937052,-1.0393298698959073
1.6381352903654145,15.291113119403065,-0.058412286681149325,1.0862454456667219,-1.004690538741013
1.6248412108694226,15.043341811627013,-0.0571884045883466,1.0682876654293845,-0.9714719558384943
1.6118263701930262,14.799666937630228,-0.05598412303249109,1.0506242823687424,-0.9395998059221606
1.599086235984457,14.560021899069906,-0.054799652694197884,1.0332456181557905,-0.909004387112468
1.5866162365688474,14.32434227802555,-0.05363512483284279,1.016142390925567,-0.8796202781844275
1.5744117781068954,14.092565748205665,-0.052490600923262395,0.9993056944647486,-0.8513860330629944
1.562468259658083,13.86463199079148,-0.05136608124032199,0.9827269787020781,-0.8242439000571754
1.550791627874147,13.640609180469692,-0.05016984731564437,0.965297458878676,-0.8202440533233997
1.5393854726800584,13.420579673757459,-0.04901411089382009,0.9480025994885674,-0.8189536370431655
1.5282404850246252,13.204512977939718,-0.04789882524038225,0.9308382337091682,-0.8202249198899495
1.5173473822713006,12.99237953773143,-0.04682380739722365,0.9138003767976656,-0.8239152755823541
1.5066969380889184,12.78415069443507,-0.04578875071044836,0.8968852170837422,-0.8298868156434551
1.4962800095794182,12.579798647090353,-0.04479323632868483,0.8800891076529274,-0.8380060390184545
1.486087561870295,12.379296415462061,-0.04383674375064685,0.8634085586800484,-0.8481434969234609
1.4761106903821348,12.182617804720536,-0.04291866049422251,0.8468402303766782,-0.860173471387977
1.4663406409656623,11.989737371677347,-0.0420382909533658,0.8303809265206282,-0.8739736660315706
1.4567688280881215,11.800630392445434,-0.04119486450350958,0.8140275885394842,-0.889424907681958
1.4473868512354455,11.615272831399139,-0.040387542911064535,0.7977772901239567,-0.9064108574979242
1.438186509684429,11.433641311314581,-0.03961542709777429,0.7816272323504613,-0.9248177303066082
1.4291598157879695,11.255713084575248,-0.038877563306221774,0.7655747392958991,-0.9445340209010623
1.4202990069062662,11.08146600533114,-0.03817294870858999,0.7496172541311122,-0.9654502360708853
1.411596556107642,10.91087850250252,-0.037500536496836684,0.7337523356829829,-0.9874586311563063
1.4030451817543037,10.74392955352123,-0.03685924048871438,0.7179776554586769,-1.010452949924393
1.3946378560808412,10.580598658703632,-0.036247939280523764,0.7022909951291312,-1.0343281665650543
1.3863678128665597,10.42086581614943,-0.03566547997409903,0.6866902444726212,-1.0589802285940595
1.3782285542967785,10.264711497060016,-0.03511068150225921,0.6711733997831407,-1.0843057994302037
1.370213857103033,10.112116621368422,-0.034582337573790076,0.6557385627524648,-1.1102019993836976
1.3623177780676166,9.963062533570383,-0.034079219255917816,0.6403839398391857,-1.1365661437524843
1.3545346589741316,9.817530978642456,-0.03360007720916863,0.6251078421427961,-1.1632954766720298
1.3468591310826359,9.67550407792833,-0.03314364358644658,0.6099086858061049,-1.1902868993016935
1.3392861192056111,9.536964304868501,-0.03270863360507389,0.5947849929750046,-1.2174366908565175
1.3318108454593278,9.401894460441017,-0.03229374679739004,0.5797353933509518,-1.2446402209066083
1.324428832764268,9.270277648172119,-0.03189766794226192,0.5647586263785866,-1.271791651266698
1.3171359081681127,9.142097248564916,-0.03151906767647933,0.5498535441188224,-1.2987836256855028
1.30992820606545,9.01733689278159,-0.03115660278145605,0.5350191148666151,-1.325506945417859
1.3028021713898412,8.895980435399927,-0.030808916136880374,0.5202544275826331,-1.3518502286223093
1.2957545628562754,8.7780119260477,-0.03047463632890995,0.5055586972193467,-1.377699551373271
1.2887824563353962,8.66341557969847,-0.030152376896126695,0.49093127103484796,-1.4029380679112837
1.2818832484452969,8.552175745389214,-0.029840735191693817,0.4763716360021689,-1.4274456075792483
1.2750546604522368,8.444276873093568,-0.029538290834914868,0.46187942743822247,-1.4510982457106871
1.2682947425784679,8.339703478453753,-0.029243603719597968,0.4474544389949472,-1.4737678455536658
1.2616018788235939,8.238440105039096,-0.028955211540175694,0.4330966341759934,-1.4953215681400074
1.2549747924157042,8.14047128375882,-0.028671626789300103,0.41880615956552175,-1.515621346857087
1.2484125520201004,8.045781489010913,-0.028391333172472985,0.4045833599814887,-1.5345233233683433
1.2419145788470267,7.954355091096716,-0.02811278137599402,0.390428795794145,-1.5518772414870687
1.2354806548156925,7.866176304372058,-0.027834384113868994,0.3763432626811385,-1.5675257956769635
1.2291109319503937,7.781229130539579,-0.0275545103669902,0.36232781412301884,-1.5813039310910453
1.2228059432061447,7.699497296413195,-0.02727147871343517,0.3483837869759811,-1.5930380925516425
1.2165666149464769,7.62096418540456,-0.026983549631501264,0.33451283049041447,-1.6025454207379555
1.2103942813256912,7.545612761893494,-0.026688916636200273,0.3207169391710364,-1.6096328952543686
1.2042907008628618,7.473425487551253,-0.026385696084055183,0.3069984898919394,-1.614096426444984
1.1982580755366539,7.404384228590516,-0.026071915448188362,0.29336028367970385,-1.6157199011434098
1.1922990727804836,7.338470152824399,-0.025745499822857634,0.2798055925473905,-1.6142741924946222
1.1864168508195523,7.275663615337933,-0.025404256359153447,0.2663382116827474,-1.6095161512611706
1.1806150878690032,7.215944031523705,-0.02504585625431818,0.2529625171366291,-1.6011876066335609
1.174898015812205,7.1592897362318695,-0.02466781380479623,0.23968352887931904,-1.58901441993874
1.169270459109623,7.105677827868426,-0.02426746186983107,0.22650697862887406,-1.5727056568276854
1.1637378798668614,7.055083996498265,-0.02384192284983525,0.2134393811116545,-1.5519529754352797
1.1583064302387238,7.007482335451503,-0.02338807391657902,0.20048810625150768,-1.5264303737650973
1.1529830137015116,6.962845136712669,-0.02290250466787617,0.18766144799922507,-1.4957945049381876
1.1477753572470568,6.921142671668157,-0.022381464501296584,0.17496868282262984,-1.4596858619302717
1.1426920973328527,6.882342960851361,-0.021820795622218062,0.16242010688865038,-1.4177312646944544
1.137742883612867,6.846411539514197,-0.02121584542113767,0.15002703517365062,-1.3695482657501483
1.1329385063124524,6.813311230651884,-0.020561348495509942,0.13780173754211808,-1.3147523411318647
1.1282910559790988,6.783001944129349,-0.01985126309886799,0.1257572756973083,-1.252968066205024
1.12381412884048,6.75544053048727,-0.019078538106513485,0.11390719075554535,-1.1838458926733502
1.1195230980718154,6.730580731378705,-0.018234772925352707,0.10226497540590686,-1.1070866103167154
1.1154354823571246,6.708373285207369,-0.017309711550217988,0.09084325217094368,-1.0224759718759888
1.111571460392549,6.688766264160197,-0.016290479446091476,0.07965258302186433,-0.9299319678283692
1.1079546066708579,6.67170573049523,-0.01516042248165698,0.06869988363003732,-0.8295661824619364
1.104612965136214,6.657136789289261,-0.013897329993507096,0.05798656163924997,-0.7217572975295591
1.1015806429815107,6.645005049163704,-0.012470688743043735,0.04750683075689652,-0.607227317180363
1.0989002231962106,6.635258325051087,-0.01083730939000023,0.03724729196149637,-0.4870979868349231
1.0966265517137328,6.627848036959602,-0.008933746979372369,0.02718999579054325,-0.36288793056963586
1.0948332172533106,6.622728982907773,-0.006660465719951856,0.017323517703625516,-0.2363994349401048
1.0936261491061585,6.61985406225044,-0.0038357790378921487,0.007675792360141508,-0.1094533010896861
