x,y,v_x,v_y,omega
2.375,32.48,0.0,2.4615384615384617,-2.8571428571428577
2.37442810929795,31.968461795160465,-0.005446578114765292,2.4102539655046997,-2.700526356133121
2.3727864625517068,31.467509665231653,-0.010188152801835434,2.3607187004840053,-2.5565335406344296
2.3702140549667643,30.976786455288778,-0.014310967054757363,2.3128356799243206,-2.4238289519727125
2.3668329709820415,30.495954608582196,-0.01788983279974743,2.2665152410907283,-2.3012451501514484
2.362750609652788,30.02469470470151,-0.020989798907429538,2.2216743196777227,-2.187758594862747
2.358061587836181,29.562704140444733,-0.02366755172692242,2.178235816101099,-2.0824693950796025
2.352849372418977,29.109695935647036,-0.025972595103589374,2.136128039115062,-1.9845842426048634
2.347187683909773,28.66539764895658,-0.027948247841211162,2.095284215079743,-1.8934019775329802
2.3411417064943936,28.229550390775593,-0.029632489448117222,2.0556420533106237,-1.808301338229108
2.3347691337718373,27.801907922418884,-0.031058679338133707,2.017143359610431,-1.728730531519296
2.3281210745787893,27.38223583206101,-0.03225617011946461,1.9797336914169295,-1.654198325120072
2.321242839361144,26.970310779309628,-0.03325083195334878,1.9433620490724293,-1.584266417566831
2.314174624294759,26.565919801305093,-0.0340655020122235,1.9079805985898222,-1.518542883822739
2.3069521076631667,26.168859674143267,-0.03472037066960608,1.873544421998983,-1.4566765295170079
2.299606970762501,25.778936324179703,-0.03523331409863952,1.8400112919396978,-1.3983520150435718
2.2921673537398277,25.39596428442294,-0.035620181355392924,1.807341467648535,-1.3432856338513324
2.2846582552132264,25.01976619178169,-0.035895042707475476,1.775497509887187,-1.2912216481973424
2.277101883216155,24.65017232141063,-0.03607040488368234,1.7444441126943477,-1.2419291012205076
2.2695179639109715,24.28702015481466,-0.036157398022826706,1.7141479501244172,-1.1951990370643133
2.261924013591304,23.93015397873233,-0.03616593835495726,1.6845775363739324,-1.1508420714411534
2.254335578711092,23.57942451213374,-0.036104870028013686,1.655703097898365,-1.1086862638946398
2.24676644801575,23.234688558943542,-0.035982088975244915,1.6274964562939864,-1.068575250406247
2.239228840288392,22.895808684341652,-0.03580465128530618,1.599930920866889,-1.030366601171958
2.2317335707452517,22.562652912707136,-0.035578868173174,1.5729811899380204,-0.9939303735561803
2.2242901987059573,22.235094445459175,-0.03531038934391415,1.5466232600425402,-0.9591478345869946
2.216907158815117,21.913011397215662,-0.03500427628313571,1.5208343422766586,-0.9259103310297357
2.209591877792474,21.596286548838215,-0.03466506678965726,1.4955927851275839,-0.894118288180151
2.2023615146276785,21.284808537349363,-0.03419553477982269,1.4708644671472133,-0.8609161689621616
2.1952312281222075,20.97847013368572,-0.033711955748470676,1.4466441391731744,-0.8292942489181176
2.188203694427064,20.677166623269443,-0.03321693658623215,1.422913102886603,-0.7991581115104387
2.1812810729737717,20.38079712509819,-0.032712791540359124,1.3996535463634034,-0.7704200497774703
2.174465064619665,20.08926441114085,-0.03220157373684926,1.37684849132558,-0.7429985142869148
2.167756963543583,19.802474736417256,-0.03168510317821806,1.35448174413721,-0.7168176125400678
2.161157703588262,19.520337679008147,-0.03116499163436001,1.3325378502352576,-0.6918066544804866
2.1546678996635698,19.242765989303397,-0.030642664791282342,1.3110020517147432,-0.6678997393724913
2.1482878847529094,18.969675447852886,-0.030119381976911875,1.289860247813947,-0.6450353798503283
2.1420177430022496,18.700984731235202,-0.029596253743656358,1.2690989580687566,-0.6231561594082354
2.1358573393160913,18.436615285405725,-0.029074257553089306,1.2487052879262506,-0.6022084200138283
2.1298063458362964,18.17649120602769,-0.028554251778292662,1.2286668966264507,-0.5821419768897421
2.123864265637167,17.92053912532821,-0.02803698821341417,1.2089719671781114,-0.5629098578277698
2.1180304539327373,17.668688105056198,-0.027523123257346408,1.189609178269659,-0.5444680646814272
2.1123041370592563,17.42086953515102,-0.027013227918659666,1.170567677970137,-0.5267753549317199
2.1066844294667755,17.177017037759974,-0.026507796771633906,1.151837059087419,-0.5097930414410536
2.1011703489280533,16.93706637626927,-0.026007255978103855,1.1334073360621648,-0.4934848087052694
2.0957608301503123,16.700955369037697,-0.025511970476570715,1.1152689232861457,-0.47781654408682445
2.090454736955291,16.468623807544663,-0.02502225042839886,1.097412614742757,-0.46275618266584334
2.085250873175236,16.240013378684704,-0.024538357000695007,1.0798295648758858,-0.4482735644824835
2.0801479923967325,16.015067590959646,-0.024060507556478563,1.0625112706008732,-0.4343403030658181
2.0751448066702443,15.793731704336842,-0.023588880314837822,1.045449554378207,-0.42092966425301265
2.0702399942908234,15.575952663558063,-0.023123618536791266,1.0286365482768487,-0.4080164543995022
2.0654322067443864,15.361679034698213,-0.022664834286418703,1.0120646789598213,-0.3955769171675154
2.060720074904116,15.150860944786793,-0.022212611811390993,0.9957266535298926,-0.3835886381578256
2.0561056091916776,14.94358796568708,-0.021734680688025657,0.9783017188483109,-0.39821979890317555
2.0515886650369954,14.739961972390944,-0.021283835070851128,0.9609934554005883,-0.41483612622213234
2.0471635491765943,14.539958807408055,-0.02086012550439998,0.9437985920554997,-0.4333243251010701
2.0428245689213633,14.34355498672505,-0.020463495973988062,0.9267139858778803,-0.4535742090791879
2.0385660535767722,14.150727673449488,-0.02009379302211678,0.9097366167465009,-0.4754784578424448
2.034382374024217,13.961454652540173,-0.01975077414507698,0.8928635823898228,-0.49893238253946975
2.030267960609266,13.775714306537967,-0.019434115521119788,0.8760920938216463,-0.5238336978938278
2.026217319472231,13.59348559221478,-0.019143419117313203,0.8594194711610895,-0.5500823002122104
2.022225047446998,13.414748018061374,-0.018878219218239338,0.8428431398237151,-0.5775800504072035
2.0182858456454054,13.239481622537223,-0.018637988415974728,0.826360627072966,-0.6062305611663302
2.014394531836511,13.067666953007603,-0.018422143097306044,0.8099695589234068,-0.6359389874060414
2.0105460517229057,12.899285045294736,-0.018230048460838137,0.7936676573896259,-0.6666118191501677
2.0067354892096976,12.734317403770735,-0.018061023093524513,0.7774527380770525,-0.6981566759669103
2.0029580757558954,12.572745981920736,-0.017914343133166487,0.7613227081134255,-0.7304821020865232
1.9992091988926537,12.414553163304493,-0.017789246040561882,0.74527556442223,-0.7634973613031558
1.9954844099881623,12.259721742844235,-0.017684934002212764,0.7293093923421484,-0.7971122307385379
1.991779431334841,12.108234908365365,-0.017600576981799794,0.7134223645994783,-0.8312367925118661
1.9880901626309748,11.960076222314843,-0.017535315435973947,0.6976127406435996,-0.8657812223189078
1.9844126869259227,11.81522960357957,-0.017488262707379038,0.6818788663589761,-0.9006555738733765
1.9807432760956045,11.673679309323933,-0.01745850710517473,0.6662191741709057,-0.9357695581044015
1.9770783959130929,11.535409916761523,-0.01744511368065173,0.6506321835663507,-0.9710323159346512
1.9734147107778315,11.400406304771202,-0.01744712570278967,0.6351165020557591,-1.006352183383546
1.9697490881662825,11.268653635261622,-0.01746356583577244,0.6196708266069091,-1.0416364476480995
1.9660786028666877,11.140137334181201,-0.017493437017511375,0.6042939455875648,-1.0767910927092639
1.9624005410611638,11.014843072062181,-0.017535723035097057,0.5889847412602333,-1.111720532893208
1.9587124043195532,10.89275674397749,-0.017589388789764793,0.5737421928796809,-1.146327332683663
1.955011913571389,10.773864448777637,-0.01765338024037202,0.5585653804522464,-1.180511910932305
1.9512970131250476,10.65815246746147,-0.017726624010498303,0.5434534892255362,-1.214172227448206
1.9475658748067417,10.54560724051905,-0.017808026640033774,0.5284058149879971,-1.2472034497639324
1.943816902296505,10.436215344066927,-0.01789647345745731,0.5134217702703352,-1.2794975976746132
1.940048735743868,10.329963464575265,-0.01799082704384977,0.4985008915550259,-1.3109431629274746
1.936260256752598,10.226838371962256,-0.018089925253959437,0.48364284761650644,-1.3414247012041753
1.9324505938318417,10.126826890803521,-0.01819257875324345,0.46884744913333176,-1.370822393289441
1.9286191284203738,10.029915869372353,-0.018297568022642978,0.45411465973492965,-1.399011572061712
1.9247655016016436,9.936092146189843,-0.018403639774786165,0.4394446086699103,-1.4258622116827024
1.9208896216400897,9.845342513721903,-0.018509502716203177,0.42483760531047904,-1.4512383751152773
1.916991672484009,9.757653678811746,-0.01861382257980372,0.41029415573862194,-1.4749976158818237
1.91307212339742,9.673012219381263,-0.01871521634009093,0.3958149816945381,-1.4969903298166447
1.9091317399031509,9.591404536871682,-0.018812245510091443,0.38140104220625154,-1.5170590525076753
1.9051715962422326,9.51281680382261,-0.01890340840341469,0.3670535582610938,-1.5350376982262766
1.9011930895810663,9.437234905908184,-0.018987131226741685,0.3527740409239217,-1.5507507364981679
1.8971979562283514,9.364644377659236,-0.019061757846733758,0.33856432335177394,-1.5640123032029785
1.8931882901592025,9.295030331001605,-0.019125538049922352,0.32442659719708405,-1.5746252443914834
1.88916656418522,9.228377375633645,-0.019176614083245655,0.31036345392633524,-1.5823800931487264
1.8851356541579043,9.164669530153411,-0.019213005224523027,0.29637793159971293,-1.587053983198757
1.8810988666505906,9.103890122732569,-0.019232590083226205,0.2824735676464086,-1.5884095081079375
1.877059970633751,9.046021680028286,-0.01923308626762779,0.26865445810867733,-1.586193542717068
1.8730232337440917,8.991045802940171,-0.0192120269672214,0.25492532368289716,-1.5801360550037693
1.8689934638554346,8.938943027779672,-0.01916673387713044,0.2412915826075802,-1.5699489536649787
1.8649760567983076,8.889692671460057,-0.01909428571455704,0.2277594299601708,-1.555325041807436
1.8609770512602613,8.843272659492577,-0.018991481314455518,0.2143359221110642,-1.5359371838490825
1.8570031921537273,8.79965933597489,-0.01885479589063044,0.20102906377167307,-1.5114378462672247
1.8530620041006975,8.75882725551305,-0.018680328423937992,0.18784789300776206,-1.4814592506210276
1.8491618772154168,8.72074895832543,-0.018463737150165475,0.17480255639815337,-1.4456144898255188
1.8453121681686668,8.685394731927438,-0.01820015853316597,0.16190436167794367,-1.4035001204182067
1.841523320756175,8.652732366210245,-0.017884102538185745,0.14916578800961766,-1.3547009735854727
1.8378070121424606,8.622726913990213,-0.01750931283052292,0.13660042360971242,-1.2987982490430712
1.8341763340592032,8.595340476985005,-0.017068573676691078,0.12422278596369497,-1.235382391290839
1.830646023238189,8.570532048556892,-0.016553434142491122,0.11204796097071229,-1.1640728064921055
1.8272327634421104,8.548257460207829,-0.015953802010637057,0.10009097568701665,-1.0845471217398903
1.823955594520788,8.52846949859164,-0.015257330573387877,0.08836580161002128,-0.9965832530114397
1.8208364849551164,8.511118280964325,-0.014448474813960069,0.07688389007868562,-0.9001175871946403
1.817901158067163,8.496151990417452,-0.013507019357024178,0.06565221036771084,-0.7953210947714862
1.815180316378141,8.483518055709446,-0.012405758633661187,0.05467097732758271,-0.6826902792944286
1.812711499695826,8.473164768495526,-0.011106781197910882,0.043931758043101274,-0.5631387757281403
1.8105419860251886,8.46504308242184,-0.009555253760541256,0.03341763313486473,-0.43805615532499753
1.8087335676174459,8.459107795229091,-0.007667778694150786,0.023108911557981636,-0.3092769524052631
1.8073714566080454,8.455316100419896,-0.005304707109664129,0.013002467577198685,-0.17889099937702163
1.8065867321633085,8.45361709349185,-0.0021688590306882362,0.003178550785128272,-0.048856368899836716
