x,y,v_x,v_y,omega
2.375,32.48,0.0,3.7435897435897436,-3.591836734693878
2.3736170281517466,31.63223982194431,-0.012025842158725888,3.628237891677089,-3.2778224186644085
2.369743659522302,30.810263351796966,-0.021655624184273123,3.5193835878650415,-3.0055136005673715
2.3638779493412603,30.012640871992772,-0.02935055130304437,3.4164640626062175,-2.7678643173667874
2.3564228692587594,29.238064567304367,-0.03547623202304744,3.3189820651190507,-2.5592182581837433
2.347705812771766,28.485334580484604,-0.04032425916820206,3.226496081139753,-2.3750003776574506
2.3379937453198423,27.75334710814107,-0.04412850128330695,3.138612374021382,-2.211483983210975
2.3275050546167333,27.04108416507806,-0.047077504830685006,3.0549784352221865,-2.0656131821806234
2.3164188805294,26.347604727783033,-0.04932400897221044,2.975277541256337,-1.9348663611245305
2.304882505266594,25.67203702855065,-0.050992297660889085,2.8992241911991448,-1.8171503705851881
2.293017240390375,25.013571817423635,-0.05218391865405766,2.826560253383612,-1.7107178920841748
2.280923141338838,24.371456444014747,-0.05298216005495745,2.7570516893023482,-1.6141024523312135
2.2686828018174148,23.744989638303725,-0.053455574913942476,2.6904857516630707,-1.5260669751774627
2.2563644219588377,23.13351689071985,-0.05366077168237834,2.6266685751532326,-1.4455627943086193
2.244024300192745,22.5364263486701,-0.053644634979301005,2.565423094844578,-1.3716968044403581
2.231708865473642,21.953145160192236,-0.053446101708549146,2.506587239745541,-1.3037049853368763
2.2194563411337205,21.38313620636101,-0.053097588203812295,2.450012358786883,-1.2409309467095282
2.207298112153622,20.8258951730163,-0.052626142057912856,2.395561844210597,-1.1828084519634041
2.195259852615346,20.280947919737415,-0.052054375666225276,2.3431099234318564,-1.128847112568337
2.1833624584372995,19.747848110079918,-0.051401225882004624,2.292540595328996,-1.0786206224237325
2.171622821390277,19.22617507216809,-0.05068257452688801,2.243746690860827,-1.0317570373491947
2.1600544732555558,18.71553186299043,-0.04991175707938286,2.1966290411187774,-0.9879307092536412
2.1486681233614617,18.21554351332872,-0.04909998113012974,2.151095738548309,-0.9468555653186542
2.1374721082814974,17.725855433283254,-0.048256671739125304,2.1070614792383453,-0.9082794853762639
2.1264727689357845,17.24613196093423,-0.047389757354031906,2.064446975970594,-0.8719795798110943
2.1156747675094385,16.776055038878,-0.04650590722289058,2.0231784332140044,-0.8377582089522809
2.1050813543337488,16.315323005260968,-0.04561072908745477,1.9831870764992825,-0.8054396154397211
2.0946945930505376,15.863649487552788,-0.044708934244813925,1.9444087296587902,-0.7748670652704187
2.0845155509050777,15.420762388697096,-0.04380447571570712,1.9067834343037455,-0.7459004125405169
2.074544459816859,14.986402956486053,-0.042900664181845516,1.8702551066618494,-0.7184140183599609
2.064780852904244,14.560324928053152,-0.04200026549307074,1.8347712275372945,-0.6922949668485481
2.055223680344453,14.142293742290835,-0.04110558285293781,1.8002825617002336,-0.6674415311584492
2.0458714077995586,13.732085813795173,-0.0402185262330987,1.7667429034794453,-0.6437618506023675
2.036722100104506,13.32948786263578,-0.039340671115186444,1.734108845732656,-0.6211727865837591
2.027773492472654,12.934296294859408,-0.038473308292220836,1.7023395697140724,-0.5995989304284636
2.0190230511103113,12.54631662917177,-0.03761748616293203,1.6713966536566973,-0.5789717406441108
2.010468024830103,12.165362965714571,-0.03677404670845045,1.6412438981450341,-0.5592287907734508
2.002105489002423,11.791257493271448,-0.035943656140936885,1.6118471665777785,-0.5403131120101969
1.9939323829755233,11.42383003160528,-0.03512683104949424,1.583174239214986,-0.522172617230642
1.9859455419204926,11.062917605956027,-0.03432396073338203,1.5551946794741862,-0.5047595951568854
1.9781417239115666,10.708364051018322,-0.0335353263007582,1.5278797112884865,-0.48803026508488756
1.9705176329298435,10.360019641976113,-0.03276111701857193,1.5012021064698555,-0.47194438404471334
1.963069938375639,10.017740750401554,-0.03200144432233755,1.4751360811350083,-0.4564648994613637
1.95580739802993,9.681390300054687,-0.031151080422959165,1.449650443620371,-0.43849528204309923
1.948737711364307,9.350836632062773,-0.030324455799849576,1.4247292780484577,-0.42143362356179587
1.9418554733594795,9.025952452087544,-0.029521092068213906,1.4003505478230975,-0.4052224253593925
1.9351553927135903,8.706615406641937,-0.028740478765605523,1.3764933256169725,-0.3898085200400683
1.9286322982996023,8.392707835976331,-0.027982081356029198,1.353137723649155,-0.3751426939213803
1.9222811439248682,8.084116542402736,-0.027245347989485722,1.3302648291647199,-0.3611793467428941
1.9160970116582985,7.78073257291204,-0.026529715198076027,1.307856644667429,-0.3478761845368463
1.9100751139519598,7.482451015037739,-0.0258346126831285,1.2858960325003952,-0.3351939420604879
1.9042107947509996,7.189170805008189,-0.02515946732522309,1.264366663408733,-0.32309613161970696
1.8984995297576703,6.900794547309577,-0.024503706529812215,1.2432529687531044,-0.31154881548758045
1.8929369259911852,6.6172283448544285,-0.023866761004842252,1.2225400960742563,-0.3005203994475033
1.8875187207645436,6.338381639016188,-0.02324806705290978,1.2022138677365475,-0.28998144527515013
1.8822407801818621,6.064167058850085,-0.02264706844866781,1.182260742403478,-0.27990450022242314
1.8770990972446224,5.794500278874807,-0.02206321796211288,1.1626677791206763,-0.27026394178456087
1.872089789642306,5.529299884838704,-0.021495978579770102,1.1434226038019688,-0.2610358362228698
1.8672090972917634,5.268487246939262,-0.020944824468426843,1.1245133779323024,-0.2521978094836309
1.862453379680122,5.011986400005519,-0.020409241719759764,1.1059287693176423,-0.24372892930166973
1.8578191130578379,4.759723930190418,-0.019888728908796394,1.0876579247267117,-0.23560959740746987
1.8533028875214568,4.511628867754329,-0.01938279749451753,1.0696904442827633,-0.22782145087180455
1.8489014040195906,4.267632585552118,-0.01889097208692788,1.0520163574756078,-0.22034727172360058
1.844611471310421,4.027668702864794,-0.018412790601503828,1.0346261006750368,-0.21317090406680678
1.8404300028945644,3.7916729942429512,-0.01794780431898775,1.0175104960366432,-0.20627717800186618
1.8363540139432943,3.559583303053234,-0.01749557786596902,1.0006607317000187,-0.19965183972824305
1.8323806182388138,3.3313394594411783,-0.017055689129514214,0.9840683431874362,-0.1932814872674249
1.8285106620413998,3.1069870977726026,-0.01659610389147789,0.9668217582784392,-0.2052149203532216
1.824743312003213,2.886587111974155,-0.016163461657972437,0.9496998573602324,-0.2193702691913699
1.821072334317758,2.670111248637401,-0.015758083432940093,0.9326989542637308,-0.23562453280106838
1.8174914370762205,2.45753208505036,-0.015380153449995788,0.9158155117105276,-0.2538585761077728
1.8139943003457621,2.2488229957510875,-0.01502973116268483,0.8990461343701114,-0.27395684681532423
1.8105746036012476,2.0439581206185373,-0.014706762267877293,0.8823875624346581,-0.2958071032369345
1.8072260507243807,1.8429123343848808,-0.014411088835313658,0.8658366656840921,-0.31930015194445244
1.8039423927681422,1.6456612174592316,-0.01414245861023775,0.8493904380172008,-0.3443295941404432
1.8007174486696655,1.452181027958087,-0.013900533550427585,0.8330459924275417,-0.37079157969499765
1.7975451240811893,1.2624486748422612,-0.013684897653714502,0.8168005564057353,-0.3985845678190645
1.7944194284763815,1.076441692064062,-0.013495064127222293,0.8006514677525156,-0.4276090933685888
1.7913344906780737,0.8941382136317131,-0.013330481945020175,0.7845961707896478,-0.4577675377888987
1.788284572943184,0.715516949500671,-0.013190541836628442,0.768632212958546,-0.488963903716573
1.785264083731319,0.5405571622035339,-0.013074581744807651,0.752757241799167,-0.5211035922563305
1.7822675892751305,0.369238644131606,-0.01298189178726713,0.7369690023045544,-0.5540931819431063
1.7792898240629635,0.2015416953819127,-0.012911718753313359,0.7212653346492908,-0.5878402083841319
1.7763257003375887,0.03744710208353297,-0.012863270162991373,0.7056441722931341,-0.6222529435521277
1.7733703167088586,-0.123063884883571,-0.012835717912920914,0.6901035404642996,-0.6572401736681726
1.7704189659729503,-0.2800095708654453,-0.012828201529761683,0.674641555030258,-0.6927109745708325
1.7674671422263897,-0.43340783819719775,-0.01283983104902667,0.659256421767609,-0.7285744834160262
1.7645105473593685,-0.5832761668458346,-0.012869689533765485,0.643946436046606,-0.7647396654890392
1.7615450970098765,-0.7296316550304809,-0.01291683524442657,0.6287099829503459,-0.8011150748351367
1.758566926057954,-0.8724910399229273,-0.012980303467941172,0.6135455378535564,-0.8376086073272782
1.7555723937379089,-1.011870718537601,-0.01305910801071402,0.5984516674914198,-0.8741272446872923
1.7525580884456546,-1.1477867689279506,-0.013152242356713398,0.5834270315550703,-0.9105767878591745
1.7495208323184919,-1.2802549718153884,-0.013258680488180566,0.5684703848574172,-0.946861577998438
1.746457685665655,-1.409290832787896,-0.013377377362574576,0.5535805801209248,-0.9828842031880849
1.7433659513299136,-1.5349096052183313,-0.013507269035177218,0.5387565714480904,-1.0185451888180956
1.7402431790634605,-1.6571263140676322,-0.013647272412241326,0.5239974185458005,-1.0537426693696375
1.7370871700053732,-1.7759557807558721,-0.013796284614603749,0.5093022917867374,-1.088372039125836
1.7338959813531782,-1.891412649304904,-0.013953181926222575,0.49467047820481785,-1.1223255790864577
1.7306679313276172,-2.003511413980277,-0.01411681829604681,0.48010138853757334,-1.1554920570931562
1.7274016045377603,-2.112266448688473,-0.01428602335488344,0.465594565446763,-1.187756297874685
1.7240958578632908,-2.217692038417873,-0.014459599901374548,0.4511496930697459,-1.2189987193984368
1.7207498269823218,-2.319802413049935,-0.014636320802701268,0.4367666080786467,-1.24909483156847
1.7173629336867173,-2.4186117839110253,-0.014814925246035523,0.4224453124526025,-1.2779146929461938
1.7139348941428467,-2.514134383486173,-0.014994114265882048,0.4081859882008747,-1.3053223207977362
1.7104657282743616,-2.606384508775136,-0.015172545460075432,0.39398901431183686,-1.331175049407589
1.7069557704652512,-2.695376568839201,-0.015348826793059175,0.3798549862452568,-1.355322831266583
1.7034056818066308,-2.7811251371657235,-0.015521509368855848,0.3657847383331991,-1.377607475482488
1.6998164641399074,-2.863645009567499,-0.01568907903743574,0.35177936950834454,-1.3978618176324489
1.696189476182807,-2.942951268437234,-0.015849946676482672,0.33784027283715296,-1.4159088153665347
1.6925264520640204,-3.0190593542942636,-0.016002436965137035,0.3239691693978754,-1.4315605645124434
1.6888295226378678,-3.0919851456923695,-0.016144775436191344,0.31016814710741447,-1.4446172314179375
1.685101240003649,-3.161745048703324,-0.016275073557016764,0.29643970516172413,-1.4548658990881052
1.681344605716903,-3.228356097349341,-0.01639131154511963,0.2827868048036675,-1.4620793277546427
1.677563103253841,-3.291836066524745,-0.01649131856846484,0.2692129271563574,-1.4660146354823629
1.6737607353789854,-3.352203599113949,-0.01657274990853921,0.25572213883671446,-1.4664119122024442
1.6699420671742375,-3.4094783491652905,-0.016633060567530868,0.24231916595755795,-1.4629927925357455
1.666112275622277,-3.463681143091648,-0.016669474666908622,0.22900947688032727,-1.4554590309662676
1.6622772068095513,-3.5148341608975215,-0.016678949791576525,0.21579937360551277,-1.4434911503576295
1.6584434420417509,-3.5629611393093796,-0.016658135145816877,0.20269609084541207,-1.426747275937424
1.6546183744763945,-3.608087598302589,-0.01660332194423943,0.18970790039990473,-1.4048623283016843
1.6508102983202717,-3.6502410917028243,-0.016510383761174613,0.17684421612385604,-1.3774478404103239
1.647028513293003,-3.689451481027099,-0.016374703432466955,0.16411569104373724,-1.3440927990539735
1.6432834480545635,-3.7257512291152963,-0.0161910812496162,0.1515342923319105,-1.3043661109732767
1.6395868078588394,-3.7591757057833988,-0.015953616104505974,0.1391133308689674,-1.2578215853296615
1.6359517542080109,-3.789763490834062,-0.0156555460766114,0.12686740870203977,-1.2040067429415595
1.6323931283900608,-3.8175566491001334,-0.015289026253388703,0.11481222839420553,-1.1424773473001175
1.6289277375758409,-3.842600936316714,-0.0148448069137412,0.1029641821847368,-1.072820327380567
1.6255747334611177,-3.864945872160831,-0.014311750605591301,0.09133960776409586,-0.9946886883847826
1.6223561322815325,-3.8846445876742663,-0.013676085738627533,0.07995357061358023,-0.9078528592551436
1.6192975563134353,-3.9017533226751198,-0.012920227027436613,0.06881803808948929,-0.8122730325927607
1.6164293286956726,-3.9163304297718895,-0.012020882692237079,0.05793941492591154,-0.7081948130249777
1.6137881395757567,-3.9284347739051597,-0.010945979220074486,0.04731575145037053,-0.5962627706629334
1.6114196532151204,-3.9381235816546436,-0.009649554350677712,0.03693475071906899,-0.4776287572022297
1.6093827404920298,-3.9454502415902866,-0.008062730197936435,0.02677533567783553,-0.3540016254099472
1.6077569070487754,-3.95046356968907,-0.006074951917319307,0.016818821702874243,-0.22755179313275786
1.6066581494697725,-3.953212740815772,-0.0034794618131419744,0.007087014181477478,-0.10057813085201475
