x,y,v_x,v_y,omega
2.375,32.48,0.0,2.051282051282051,-6.775510204081632
2.374261637952838,32.11403041193967,-0.008204022746247933,2.01504670494376,-6.492027904781823
2.3721223696108074,31.754497218613256,-0.015565625498532538,1.9797665542386464,-6.22523443228516
2.36872670972566,31.401232759693865,-0.022163928780882122,1.9453941004212643,-5.973787738480931
2.3642056730046024,31.054077606361023,-0.02806981256420323,1.9118853810547656,-5.736478837298738
2.3586781685245444,30.71287995794948,-0.03334690388088602,1.8791996012957188,-5.512216211383844
2.3522522287269787,30.37749510056564,-0.038052427203176024,1.8472988140802593,-5.300012341797578
2.345026095711433,30.047784919559305,-0.04223793963622448,1.8161476415456779,-5.098972029118086
2.337089183940557,29.723617458996145,-0.045949968929060905,1.785713031378319,-4.908282232999233
2.3285229355186035,29.4048665223137,-0.049230569092646975,1.7559640428710934,-4.727203204327352
2.3194015817742417,29.09141130920309,-0.05211780584470608,1.7268716583579227,-4.555060722122525
2.309792822865194,28.783136084473867,-0.05464618203359961,1.6984086164111842,-4.391239278191233
2.299758435445391,28.479929875257085,-0.05684701151976662,1.6705492637752863,-4.235176077732593
2.2893548170318936,28.181686193403113,-0.058748748630208125,1.6432694234910648,-4.086355744778659
2.2786334745285015,27.888302780353303,-0.06037727918525533,1.6165462770623797,-3.944305638404303
2.267641463365824,27.599681372121697,-0.06175617817782903,1.5903582588443732,-3.808591699775173
2.2564217828715813,27.31572748232623,-0.06290693842487106,1.5646849611052256,-3.6788147618660947
2.2450137327643036,27.03635020146714,-0.06384917387821477,1.539507048440244,-3.5546072635156465
2.2334532350474174,26.761462010870893,-0.06460080075385013,1.5148061804069546,-3.435630317735495
2.221773125051998,26.490978609907437,-0.0651781991952582,1.490564941409209,-3.321571091145922
2.2100010788256745,26.224826957527327,-0.06562231443055658,1.4666756405920294,-3.209575491814057
2.198160384743564,25.962936653115666,-0.06594095314845402,1.4432166306486316,-3.102349383691579
2.186272641180169,25.70523159556284,-0.06614508644481527,1.420172897716127,-2.999634987800815
2.1743575543223965,25.45163832427091,-0.06624476753043834,1.397530116638639,-2.9011911593610624
2.1624330961153717,25.202085898937277,-0.06624921254761537,1.3752746092906303,-2.80679213364427
2.1505156483564303,24.956505786556626,-0.06616687366284535,1.3533933060498924,-2.7162263801801467
2.138620134254566,24.714831755100356,-0.06600550524675486,1.3318737101309235,-2.6292955547130012
2.1267601386351336,24.47699977338171,-0.0657722238580514,1.3107038645206674,-2.5458135394754744
2.1149480178479454,24.242947916659112,-0.06547356266625967,1.2898723212859742,-2.4656055633651084
2.103195000329112,24.012616277569215,-0.06511552087633363,1.2693681130462038,-2.3885073945075903
2.0915112786712444,23.785946882016756,-0.06470360865553035,1.2491807264255919,-2.314364598481863
2.079906093971532,23.562883609679773,-0.06424288800793829,1.2293000773186842,-2.2430318561810534
2.0683878131513826,23.343372118817406,-0.06373800999372256,1.2097164878186935,-2.174372335901335
2.0569639998736644,23.12735977509313,-0.06319324864759221,1.1904206646732753,-2.1082571147986218
2.0456414796231708,22.914795584149463,-0.0626125319134486,1.1714036791452351,-2.0445646453392454
2.0344263994618514,22.70563012769134,-0.06199946987899025,1.152656948167246,-1.9831802628031352
2.023324282921922,22.49981550285419,-0.06135738056467017,1.1341722166899775,-1.9239957302830115
2.01234008045652,22.29730526465019,-0.0606893134953481,1.1159415411322422,-1.8669088179665192
2.0014782158285533,22.09805437130179,-0.0599980712598398,1.0979572738500065,-1.8118229137949273
1.9907426287832994,21.902019132285922,-0.05928622924298112,1.0802120485484967,-1.7586466628663788
1.9801368143187472,21.709157158925414,-0.05855615369648818,1.0626987665682572,-1.707293633197403
1.9696638588391948,21.519427317375893,-0.057810018298538365,1.045410583981978,-1.6576820056768051
1.9593264734519615,21.33278968386753,-0.05704981933738663,1.0283408994442735,-1.6097342862439752
1.9491270246438828,21.149205502070817,-0.056277389641265406,1.0114833427414367,-1.5633770385016301
1.9390675625533085,20.968637142464758,-0.055494411365116486,0.9948317639925646,-1.5185406351332362
1.9291542592238533,20.791292161476093,-0.05465340340660752,0.9756680247703712,-1.5273625059244977
1.9193900030448934,20.617385970355024,-0.0538383319151692,0.9566229876859528,-1.5380221250455095
1.9097701532069933,20.446897480463644,-0.053048888505944795,0.9376935666627164,-1.5503892834495925
1.9002901326670547,20.27980614638112,-0.0522846730489261,0.9188768120319893,-1.564336202926925
1.8909454440046534,20.11609194170596,-0.051545200977756424,0.9001699065808813,-1.5797372577533872
1.8817316840156721,19.955735335526363,-0.050829910010924524,0.8815701620813138,-1.5964687006080618
1.872644557145736,19.79871726947248,-0.05013816632169808,0.8630750162951565,-1.614408391632986
1.8636798878597074,19.645019135265073,-0.04946927018973208,0.844682030453794,-1.633435529508569
1.8548336320378689,19.494622752674978,-0.04882246116402844,0.8263888872139443,-1.6534303834102504
1.846101887484365,19.34751034780715,-0.04819692276379214,0.8081933890952039,-1.674274024696474
1.8374809036289608,19.203664531621804,-0.04759178674070055,0.7900934574086499,-1.6958480571547034
1.828967090499214,19.063068278602934,-0.0470061369231523,0.7720871316899353,-1.7180343446009403
1.8205570270367155,18.925704905481915,-0.04643901266016377,0.7541725696547192,-1.7407147345888268
1.812247468828127,18.791558049920077,-0.045889411879711246,0.7363480476990485,-1.763770776936803
1.8040353553193427,18.660611649049635,-0.04535629377344798,0.7186119619724972,-1.7870834357258283
1.7959178165792173,18.53284991776693,-0.044838581116831616,0.7009628300575663,-1.8105327933558266
1.787892179677935,18.408257326665193,-0.044335162230750194,0.6833992932951077,-1.8339977451763703
1.7799559747442741,18.28681857948641,-0.043844892587704326,0.6659201198024614,-1.857355683126438
1.7721069407657597,18.16851858996271,-0.043366596062456755,0.6485242082386625,-1.8804821667299425
1.7643430311959998,18.053342457907068,-0.04289906582376296,0.6312105923795966,-1.9032505796990788
1.7566624194344334,17.941275444401114,-0.0424410648603088,0.613978446575443,-1.9255317702979708
1.7490635042452825,17.83230294591373,-0.04199132613025925,0.5968270921732716,-1.9471936735169675
1.7415449151847755,17.726410467168193,-0.04154855231981641,0.5797560049993377,-1.9681009130067975
1.7341055181087266,17.623583592557488,-0.0411114151918367,0.5627648240085479,-1.9881143806267616
1.7267444208363896,17.52380795588666,-0.04067855450079846,0.5458533612228381,-2.007090791379548
1.7194609790512534,17.42706920819798,-0.040248576445159265,0.5290216130958283,-2.024882211447423
1.7122548025251825,17.333352983408126,-0.03982005162229527,0.5122697734581014,-2.0413355570249645
1.7051257617591578,17.24264486145749,-0.039391512444645504,0.4955982482156634,-2.0562920616822886
1.6980739951419994,17.15493032863868,-0.03896144996822626,0.4790076719933207,-2.0695867101178185
1.6910999167380083,17.07019473473519,-0.03852831007611778,0.4624989269343773,-2.081047636409611
1.684204224825697,16.988423246561233,-0.03809048894956286,0.4460731638873727,-2.0904954853023607
1.6773879113229568,16.909600797450825,-0.03764632774755159,0.4297318262282572,-2.097742735746757
1.6706522722495303,16.833712032198047,-0.037194106401632406,0.41347667658037823,-2.1025929869399818
1.6639989193959992,16.760741246902647,-0.03673203641538033,0.3973098267018677,-2.1048402086399873
1.6574297933903472,16.69067232312695,-0.036258252536307,0.3812337708058503,-2.104267959733718
1.6509471783794516,16.623488655724334,-0.03577080314031301,0.3652514225565616,-2.1006485821952277
1.6445537185748935,16.559173073660183,-0.035267639132554256,0.34936615593401443,-2.0937423820388616
1.6382524369521558,16.497707753120103,-0.03474660112008684,0.33358185006683877,-2.0832968151592257
1.6320467564422734,16.439074122196207,-0.03420540454527237,0.31790293797646973,-2.069045704749117
1.6259405240193385,16.383252756474985,-0.03364162237622407,0.30233445892599375,-2.0507085292577973
1.619938038171791,16.33022326494036,-0.03305266481874985,0.2868821136809255,-2.027989836914288
1.6140440803589609,16.2799641657825,-0.03243575532380687,0.27155232140644237,-2.0005788665013213
1.6082639512101107,16.2324527520104,-0.031787901885640645,0.2563522760613346,-1.9681494867848186
1.6026035124412372,16.187664947265137,-0.031105862212951762,0.24128999888602026,-1.930360612089889
1.5970692357755825,16.145575153006806,-0.030386100738766755,0.226374381762104,-1.8868573133365343
1.591668260603439,16.106156089420875,-0.029624734507273504,0.2116152136371237,-1.8372729280023314
1.586408462776074,16.069378634119143,-0.028817463574560193,0.197023178604334,-1.7812325857622249
1.5812985379049906,16.03521166520608,-0.027959479437474268,0.18260980931857224,-1.7183587164212342
1.5763481039946168,16.00362191880018,-0.02704534178890357,0.16838737296918418,-1.6482792995719706
1.5715678304201695,15.974573875924477,-0.02606880903828989,0.15436865898307167,-1.5706398521623146
1.5669696035405967,15.948029700046828,-0.02502260073473985,0.14056662854636487,-1.4851204170808552
1.5625667441503177,15.923949254473943,-0.023898059157247697,0.12699387781902757,-1.3914590655957044
1.5583742993065535,15.90229023770311,-0.02268466132902464,0.1136618640791188,-1.289483543165749
1.55440944194256,15.883008482810673,-0.02136930938201182,0.10057985694793223,-1.179152429428358
1.5506920277204657,15.86605846950512,-0.01993529308570205,0.08775362422488452,-1.0606061008744274
1.5472453823880468,15.851394085512649,-0.018360766163396314,0.07518397569147438,-0.9342251632016552
1.5440974296205405,15.838969631298532,-0.01661648680889621,0.06286551557646716,-0.8006889706299033
1.5412823322486324,15.828740962976163,-0.014662372878973146,0.05078635467209629,-0.6610188655231656
1.53884295036521,15.820666473737223,-0.012441870270163203,0.03893019242723865,-0.5165810945219349
1.5368347630387431,15.814707249000488,-0.00987132224613597,0.027283415758687257,-0.36901768754577735
1.5353330489115853,15.810824908406381,-0.006814390277839319,0.01585370195361053,-0.22007751484973756
1.5344505147765746,15.808972436465595,-0.002991544555612479,0.0047293196106792425,-0.07134824423525482
