x,y,v_x,v_y,omega
2.375,32.48,0.0,2.871794871794872,-7.26530612244898
2.3734759002387746,31.912150269854042,-0.015240997612254474,2.80670242966467,-6.8272172391097445
2.369115841571249,31.357060225531253,-0.028359589063002476,2.744198013563226,-6.428509757464828
2.3623159338570985,30.814229836649236,-0.039639488078502684,2.684105875256956,-6.064541184097695
2.353419716020154,30.283192454077966,-0.04932269029093963,2.626267950455739,-5.7313250403158795
2.342725809048626,29.76351152088932,-0.057616379424343264,2.5705413814307194,-5.425423499253637
2.3304943172839123,29.2547777342864,-0.0646985382227899,2.51679648459847,-5.143860050906834
2.316952209502457,28.756606579021547,-0.07072253959176636,2.4649150680500704,-4.884047979540911
2.3022978628125905,28.268636169525788,-0.07582092730689709,2.414789026907522,-4.643731429981655
2.2867049153575425,27.790525350710098,-0.08010854724358236,2.36631916124935,-4.420936572964471
2.270325545215725,27.321952017197233,-0.08368515417459192,2.319414173879322,-4.213930928643204
2.2532932705767093,26.8626116183479,-0.08663759221556531,2.273989814614008,-4.0211893224861255
2.2357253487037125,26.41221582239846,-0.08904162651440263,2.2299681448803956,-3.841365264838207
2.2177248372464513,25.970491317725912,-0.0909634880582084,2.1872769018450775,-3.6732667897853575
2.199382370311832,25.537178732993993,-0.09246118128798682,2.1458489454741296,-3.5158359788702427
2.1807776927143316,25.11203166093043,-0.09358559468701481,2.1056217751614876,-3.368131543956928
2.161980988545302,24.694815772904967,-0.09438144700328367,2.0665371050931425,-3.2293139608830344
2.1430540342641735,24.285308013445217,-0.09488809580799991,2.028540489504341,-3.0986327387203545
2.124051201650383,23.883295865438463,-0.09514023032990243,1.9915809905632118,-2.9754154839190115
2.105020331949866,23.488576678095015,-0.09516846667527074,1.9556108828712795,-2.8590584784421083
2.086003499237758,23.10095705084985,-0.09499986044581009,1.9205853895803504,-2.7490185393366406
2.0670376782683855,22.72025226729778,-0.0946583492479134,1.8864624459403465,-2.6448059664353987
2.0481553297907027,22.34628577402823,-0.09416513552891671,1.8532024867551442,-2.545978416902414
2.029384914389112,21.978888699876208,-0.09353901848699325,1.820768254765116,-2.452135571568441
2.01075134429948,21.617899411657646,-0.09279668240932593,1.7891246274204782,-2.3629144795869808
1.9922763812944009,21.263163102927813,-0.09195294764146378,1.7582384598778495,-2.2779854857690927
1.9739789875868192,20.914531412704164,-0.09102098943435338,1.728078442358607,-2.1970486597348953
1.955875635731524,20.571862071441956,-0.0900125291185992,1.698614970263488,-2.119830658315382
1.9379805826807321,20.235018571850333,-0.08893800138931801,1.6698200256527658,-2.0460819629015234
1.9203061124491634,19.90386986239679,-0.08780670092637097,1.6416670688826493,-1.9755744420317245
1.9028627512460208,19.578290061574297,-0.08662691110505576,1.6141309393422734,-1.9080991967268828
1.8856594584198847,19.258158191203417,-0.08540601715630353,1.5871877643665282,-1.843464652162343
1.868703796124191,18.943357927215573,-0.08415060580063315,1.5608148755119011,-1.7814948644016961
1.8520020802344879,18.633777366516526,-0.08286655309639897,1.5349907314785824,-1.722028015266813
1.835559514724661,18.329308808664177,-0.08155910200186935,1.5096948470449072,-1.6649150721115666
1.8193803114299243,18.029848551214503,-0.08023293094549719,1.484907727451839,-1.610018592410129
1.8034848707384386,17.73530230742341,-0.07872147596936094,1.4605547104591008,-1.5522345768384282
1.7878907566729094,17.445579079378483,-0.07721966468593046,1.436677569990181,-1.497088598926605
1.7725958221166285,17.1605854016597,-0.07572968087687938,1.4132592071976469,-1.4444289092512104
1.7575975140038105,16.880231149423068,-0.0742534002513,1.3902833151686411,-1.3941141471492502
1.7428929314548487,16.604429384665387,-0.07279242523831911,1.3677343324081974,-1.346012516039105
1.7284788773423645,16.33309621146349,-0.07134811588652017,1.3455973996107304,-1.300001032995777
1.7143519040214197,16.06615063955783,-0.06992161732292827,1.3238583194458835,-1.255964845114516
1.7005083538722519,15.803514455702114,-0.06851388416875154,1.3025035191112762,-1.2137966060250291
1.6869443952293026,15.545112102248169,-0.06712570226074109,1.2815200154281647,-1.1733959066462354
1.6736560542047352,15.290870562477657,-0.06575770798493177,1.2608953822769553,-1.1346687549120875
1.6606392428569616,15.040719252231142,-0.06441040549280506,1.2406177201882138,-1.0975270997636923
1.6478897841038966,14.794589917420165,-0.06308418203784485,1.2206756279215591,-1.0618883952015397
1.635403433735871,14.552416537040024,-0.061779321642412406,1.201058175879836,-1.0276752006325174
1.6231758998435986,14.314135231330095,-0.06049601728031293,1.1817548812194487,-0.99481481413677
1.6112028599416768,14.079684174755162,-0.05923438173890355,1.1627556845298685,-0.9632389356256306
1.599479976037216,13.84900351350555,-0.05799445730570453,1.1440509279662525,-0.9328833571692413
1.5880029078658573,13.622035287236027,-0.05677622440788225,1.125631334728976,-0.903687678045791
1.5767673244932312,13.39872335478385,-0.05557960931837826,1.10748798979279,-0.8755950423076253
1.5657689144584324,13.179013323624932,-0.05440449102961018,1.0896123217963818,-0.848551896876403
1.5550033946170367,12.962852482844252,-0.05325070738434631,1.0719960860104147,-0.8225077683730705
1.5444665178242656,12.750189739412335,-0.052118060543366304,1.0546313483087637,-0.7974150570614431
1.534154079583859,12.54097555757409,-0.05100632186069871,1.0375104700736724,-0.773228846438966
1.524061923774846,12.335161901169617,-0.04991523622942962,1.020626093971042,-0.7499067271468777
1.5141859475564854,12.132702178718809,-0.048844525954178764,1.003971130537046,-0.7274086339963286
1.5045221055410445,11.933551191112922,-0.047793894200231675,0.9875387455218084,-0.7056966950186244
1.4950757362137477,11.737852696032629,-0.04666979907273381,0.969446205281129,-0.7222404176535946
1.4858492741746088,11.54576112756095,-0.045594821318657476,0.9514694794356573,-0.7406680612884993
1.4768330123877167,11.357253640813418,-0.04456779655026076,0.9336053880396711,-0.7608591344630236
1.4680174816142155,11.172308013843228,-0.04358751118475253,0.915850881662225,-0.7826961126199247
1.4593934596736768,10.990902622034866,-0.04265270822063283,0.8982030364213742,-0.8060641671635372
1.4509519796028947,10.813016413445233,-0.0417620924871895,0.8806590494749478,-0.8308509019357149
1.4426843368136988,10.638628885002444,-0.04091433540476994,0.8632162349529444,-0.8569460959861251
1.4345820953442203,10.467720059475187,-0.04010807929001554,0.8458720203196235,-0.8842414515364105
1.426637093291518,10.300270463127589,-0.03934194123700606,0.8286239431563481,-0.9126303460522772
1.4188414475075986,10.136261103976029,-0.038614516602187794,0.8114696483592555,-0.9420075873441008
1.4111875576355772,9.97567345056521,-0.03792438211802643,0.7944068857489107,-0.972269170615077
1.4036681095580235,9.81848941118109,-0.03727009865751083,0.7774335080922805,-1.0033120363661603
1.3962760783253811,9.664691313417794,-0.03665021366891227,0.760547469540693,-1.0350338280488032
1.3890047306287348,9.51426188401463,-0.036063263297551856,0.7437468244909625,-1.067332648329532
1.3818476268781072,9.367184228877473,-0.03550777420872311,0.7270297268806167,-1.1001068127943003
1.3747986229449018,9.223441813196192,-0.034982265123331524,0.7103944299322098,-1.1332545998748949
1.3678518716250463,9.08301844156636,-0.03448524807522443,0.6938392863661148,-1.1666739957239114
1.3610018238778674,8.945898238019147,-0.03401522939656443,0.6773627491060191,-1.200262432698386
1.3542432298947187,8.812065625857876,-0.03357071043492161,0.660963372506686,-1.2339165200344244
1.3475711400509274,8.681505307193259,-0.033150188002992534,0.6446398141394766,-1.2675317652054556
1.3409809057947315,8.554202242061535,-0.03275215455896618,0.628390837177755,-1.301002284354374
1.3344681805275835,8.430141627000587,-0.03237509811251333,0.6122153134317359,-1.3342205000741993
1.3280289205315183,8.309308872948343,-0.032017501848137994,0.5961122270907077,-1.3670768246824527
1.321659386001289,8.19168958231527,-0.031677843454155134,0.5800806792400264,-1.3994593269908817
1.3153561422416935,8.077269525068168,-0.03135459414180133,0.5641198932309792,-1.431253380414471
1.3091160610940242,7.966034613645693,-0.031046217334891112,0.5482292209937523,-1.4623412900923343
1.3029363226599409,7.857970876506567,-0.030751167005942576,0.5324081503974982,-1.4926018965093846
1.2968144173963723,7.753064430089108,-0.030467885629743067,0.5166563137771003,-1.5219101529140207
1.2907481486614147,7.651301448935008,-0.030194801719832028,0.5009734977638995,-1.5501366736275362
1.2847356357987063,7.552668133700859,-0.029930326907251545,0.4853596545776119,-1.5771472501419985
1.2787753178565764,7.457150676747183,-0.029672852514048477,0.46981491495913436,-1.6028023317148588
1.272865958048544,7.364735224956359,-0.029420745566274793,0.45433960294909187,-1.6269564670052796
1.26700664907367,7.275407839386958,-0.029172344182464505,0.4389342527449152,-1.6494577031807713
1.2611968194290673,7.189154451322473,-0.028925952263564036,0.42359962789992034,-1.6701469388846273
1.2554362408628315,7.105960814216381,-0.028679833398794933,0.40833674316100843,-1.6888572275401315
1.2497250371340936,7.025812450972623,-0.028432203888584053,0.3931468892765713,-1.7054130277414252
1.2440636942682324,6.948694595930792,-0.02818122477002659,0.3780316611417249,-1.7196293980358603
1.238453072520062,6.874592130848427,-0.027924992711676894,0.36299298968193305,-1.7313111343705903
1.2328944202867125,6.803489514089748,-0.027661529621818486,0.34803317790485655,-1.740251850044902
1.227389390245899,6.735370702142447,-0.02738877078631599,0.333154941568147,-1.7462330004467512
1.2219400580356121,6.670219062494734,-0.027104551316552695,0.3183614549089791,-1.7490228585379073
1.2165489438398027,6.608017276819275,-0.02680659064154187,0.303656401845601,-1.7483754525296704
1.211219037304045,6.548747233337604,-0.026492474716036135,0.28904403297111314,-1.7440294852341942
1.2059538262793905,6.492389907192159,-0.02615963553050923,0.27452922848334965,-1.735707266289488
1.2007573299876457,6.438925227655364,-0.025805327386938366,0.26011756688458154,-1.7231137054153287
1.1956341373262624,6.388331931089912,-0.02542659922689484,0.24581539876994427,-1.7059354393097066
1.1905894512001172,6.340587398792984,-0.025020262034557778,0.23162992419931905,-1.6838401999359214
1.185629140002928,6.295667479286983,-0.024582849937334002,0.21756927086067424,-1.6564765822967324
1.1807597977080675,6.253546295374662,-0.024110573011269763,0.20364256826252755,-1.6234744416696265
1.1759888145229873,6.214196037525735,-0.023599258839531446,0.18986001022672572,-1.5844462523946836
1.171324460802596,6.177586747146794,-0.02304427836438212,0.17623289356269123,-1.5389899043073767
1.1667759880474895,6.143686096346741,-0.022440449186680894,0.16277361443783175,-1.486693613567323
1.1623537525611713,6.112459175405519,-0.021781905676499538,0.1494955949743733,-1.427143898849373
1.15806937007002,6.083868305864815,-0.021061919235013233,0.1364131004326567,-1.3599379365063757
1.153935913895995,6.057872906626503,-0.020272642505235375,0.1235408919504502,-1.2847020607351478
1.1499681760135827,6.0344294531515175,-0.01940473631888884,0.11089364279939187,-1.2011186775412432
1.1461830208996768,6.013491585559436,-0.018446814820169133,0.09848503312141912,-1.1089642757313676
1.1425998785800993,5.995010437900721,-0.017384608375606833,0.0863264434657189,-1.0081611934514207
1.1392414488186777,5.9789352713214114,-0.01619968923860918,0.07442522232738923,-0.8988445852957615
1.1361347279703975,5.965214482438842,-0.014867519244193217,0.0627826664983077,-0.7814422657518847
1.1333125333244574,5.953796993620749,-0.01335442721520838,0.05139222168264215,-0.6567568153694505
1.1308158127000927,5.944633859928079,-0.01161277902843845,0.04023911524405205,-0.5260250046162186
1.128697278846572,5.937679561699696,-0.009572559506770096,0.029303867039768235,-0.39091134868093125
1.1270276592048896,5.932891704457404,-0.007123636910053407,0.018574705383156413,-0.2533806895293311
1.1259089374354034,5.930225790476026,-0.004063580784808606,0.008084434430624763,-0.11540622832166661
