x,y,v_x,v_y,omega
2.375,32.48,0.0,3.230769230769231,-7.755102040816326
2.372514598262794,31.74720119763388,-0.02161218901918103,3.141394268066554,-7.162953719671716
2.365488737774364,31.034433394791165,-0.039482250010648395,3.0565866262179227,-6.639239697093602
2.354710877611091,30.340690669615487,-0.05423827314824401,2.9759588100923353,-6.173755849433219
2.3408382820643148,29.665050660201704,-0.06639299247589779,2.8991717065492653,-5.758102951247302
2.324420832930043,29.00666439686837,-0.07636743477863908,2.825926235479726,-5.385320156000748
2.3059200279606484,28.3647478432386,-0.08450913017262096,2.755956839561742,-5.049602573475567
2.285724254879869,27.73857477838998,-0.09110628792111299,2.6890263330349518,-4.74608136094362
2.2641611541250444,27.127470746484214,-0.09639893603388368,2.6249217704934558,-4.470650887231545
2.2415076854913116,26.53080786724898,-0.10058774773770378,2.5634510924216154,-4.219831750513465
2.217998369541226,25.948000349030927,-0.10384108661086493,2.5044403703440743,-3.9906613850264554
2.1938320678924383,25.378500581545246,-0.10630066685685567,2.44773152083576,-3.7806060929247733
2.169177586497729,24.82179571173042,-0.10808612787974921,2.3931803905975055,-3.5874898534028485
2.1441783253913362,24.277404625880223,-0.10929875130627145,2.3406551385346437,-3.4094363692859497
2.1189561519408833,23.744875276269973,-0.11002449608897472,2.2900348580762073,-3.2448216307988513
2.0936146387656955,23.22378230208171,-0.11033648804309222,2.2412083957347826,-3.0922348887932385
2.0682417795359678,22.71372490345778,-0.11029707047627936,2.1940733314298484,-2.950446392039891
2.042912273940997,22.214324934616002,-0.10995949991477261,2.148535093281238,-2.8183805952068846
2.017689455798534,21.725225187607215,-0.10936935349794562,2.1045061850560645,-2.6950938143390992
1.9926269245198596,21.246087842828693,-0.10856570109922464,2.0619055086702134,-2.5797555155887917
1.9677699291550041,20.776593066077698,-0.10758208468212543,2.0206577674253796,-2.4716325856211787
1.943156545418508,20.316437734926527,-0.10644733911349373,1.980692938236971,-2.370076059582766
1.9188186789779196,19.86533427966739,-0.10518628210901385,1.9419458031468233,-2.274509882987528
1.894782922520003,19.423009626120592,-0.10382029578591422,1.9043555320427268,-2.1844213635043133
1.8710712894177122,18.989204229306672,-0.1023678181470485,1.8678653098174427,-2.0993530320692053
1.847701842989205,18.563671188417402,-0.10084475949214555,1.8324220022631466,-2.0188956835379135
1.824689237199378,18.146175434732555,-0.09926485607156706,1.7979758558659784,-1.9426824079460747
1.802045182071139,17.73649298515926,-0.09763997113051055,1.764480227380079,-1.8703834564487538
1.7797788449419105,17.334410254950548,-0.09598035173234488,1.7318913396522118,-1.8017018127838937
1.7578971969362778,16.939723423914533,-0.09429484831663505,1.7001680606609537,-1.7363693629104635
1.7364053125606325,16.552237851076583,-0.09259110277593238,1.6692717031473152,-1.6741435732996905
1.7153066291058137,16.171767533320082,-0.09087570987466692,1.6391658425613587,-1.6148046029859051
1.6946031715252698,15.798134604021005,-0.08915435604310368,1.6098161513436713,-1.558152786528248
1.6742957476036902,15.431168868118242,-0.08743193892715558,1.5811902478107933,-1.5040064349852702
1.6543841175155227,15.070707370435347,-0.08571267053516948,1.553257558127429,-1.4521999102518408
1.6348671412708553,14.716593994397062,-0.08400016637498092,1.5259891900315594,-1.402581934964596
1.6157429070385088,14.368679088572751,-0.0822975226019464,1.499357817136375,-1.3550141058999727
1.5970088429071791,14.026819118733599,-0.080607382887876,1.4733375727692983,-1.309369583570693
1.578693067365605,13.690881948183343,-0.07866023051711618,1.4478552146242227,-1.257759080606843
1.560820413444187,13.360740523788717,-0.07675415140825723,1.4229397801116588,-1.2087631888530483
1.5433813877034992,13.036267021821779,-0.0748895506846812,1.3985689326443145,-1.162215788181344
1.5263664294947086,12.717338624654765,-0.07306660765262928,1.3747214775036165,-1.117963320175266
1.5097659589688317,12.403837266572097,-0.07128530996369006,1.3513772884326176,-1.0758636883385477
1.4935704177561,12.095649395816139,-0.06954548319049932,1.3285172398800702,-1.035785267372898
1.4777703032994225,11.79266575162541,-0.06784681643278301,1.3061231443871342,-0.9976060094676262
1.4623561976939004,11.494781155134913,-0.0661888844847994,1.2841776946606607,-0.9612126370111539
1.4473187917706474,11.20189431310775,-0.06457116702174774,1.2626644099233453,-0.9264999124070933
1.432648905065161,10.913907633556779,-0.06299306519987431,1.241567586172071,-0.8933699767835127
1.4183375022258877,10.630727052395596,-0.06145391601119692,1.2208722500121423,-0.8617317503468567
1.4043757063455233,10.352261870330942,-0.05995300468762402,1.2005641157674447,-0.8315003879717625
1.3907548096343407,10.078424599274221,-0.05848957540961727,1.1806295455953373,-0.8025967843517302
1.3774662818000805,9.809130817609269,-0.057062840540471386,1.1610555123607569,-0.7749471236777381
1.3645017764514624,9.544299033707386,-0.05567198857794564,1.141829565046934,-0.7484824693748193
1.3518531358011845,9.283850557129416,-0.05431619098968916,1.1229397965006331,-0.723138389920888
1.339512393908507,9.027709376999098,-0.05299460807707122,1.10437481332822,-0.6988546172067793
1.32747177867043,8.775802047072187,-0.05170639399316395,1.0861237077753478,-0.6755747342793268
1.315723712743421,8.528057577062665,-0.050450701024305405,1.0681760314378963,-0.6532458896470078
1.3042608135541138,8.284407329820816,-0.04922668323053888,1.0505217706651433,-0.6318185356260214
1.293075892536885,8.044784923988583,-0.048033499527972104,1.033151323528184,-0.6112461884685702
1.2821619537183393,7.8091261417855335,-0.04687031628546852,1.0160554782374775,-0.5914852082489107
1.271512191753143,7.577368841604354,-0.04573630949884782,0.9992253929032183,-0.5724945966901235
1.2611199895020349,7.349452875118256,-0.04463066659774403,0.9826525765411128,-0.5542358112987636
1.2509888339172885,7.125437417163518,-0.043466338487006005,0.9653079274131484,-0.5573226845010565
1.2411201690806282,6.905396273148714,-0.042348138353519645,0.9480933248894932,-0.5629164164057135
1.2315034364755246,6.689299987163153,-0.041275623429988625,0.9310048141153948,-0.5708785019789031
1.22212819194848,6.477119993521519,-0.040248242022572225,0.9140386088553226,-0.5810751160426539
1.212984129519701,6.26882857892716,-0.03926534431463648,0.897191083269548,-0.593376772300679
1.2040611028143933,6.064398846454271,-0.03832619225325687,0.8804587643207962,-0.6076579974834911
1.1953491443174755,5.863804681208272,-0.037429968589505334,0.8638383247748412,-0.6237970191191912
1.186838482638856,5.667020717531429,-0.036575785137619894,0.8473265767629162,-0.6416754655138259
1.178519557962073,5.47402230762777,-0.03576269031266613,0.8309204658775885,-0.661178076591923
1.1703830358359772,5.284785491487451,-0.03498967600120983,0.8146170657773529,-0.6821924243042924
1.1624198194571373,5.0992869679960116,-0.03425568381478847,0.7984135732786571,-0.7046086413568978
1.1546210605797076,4.917504067118461,-0.033559610771556496,0.7823073039174343,-0.7283191570518881
1.1469781691795333,4.739414723051922,-0.03290031444734996,0.7662956879655138,-0.7532184390599975
1.1394828219902315,4.564997448243474,-0.032276617633535974,0.750376266890552,-0.7792027399626023
1.1321269700208096,4.394231308172149,-0.03168731253534944,0.7345466902514047,-0.806169847411816
1.124902845157036,4.227095896795454,-0.031131164540943123,0.7188047130242,-0.8340188367580593
1.117802965942201,4.063571312561525,-0.030606915588056786,0.7031481933578004,-0.8626498249864031
1.1108201426270925,3.9036381348878706,-0.030113287152018633,0.6875750907609172,-0.8919637247854115
1.1039474815739052,3.7472774010067695,-0.029648982875697647,0.6720834647269072,-0.9218619975448659
1.097178389094415,3.594470583075452,-0.029212690859000197,0.6566714738062992,-0.9522464040411772
1.0905065747990401,3.4451995654464653,-0.028803085622518668,0.6413373751414236,-0.9830187515209832
1.0839260545303997,3.2994466219897447,-0.028418829756963332,0.6260795244822298,-1.014080635833721
1.0774311529526428,3.1571943933529205,-0.028058575267009764,0.6108963767075427,-1.0453331771921774
1.0710165058661958,3.018425864040154,-0.027720964615139097,0.5957864868817311,-1.0766767480553265
1.0646770623166462,2.8831243391821957,-0.027404631467902053,0.580748511883125,-1.108010691529352
1.0584080865663048,2.751273420861157,-0.02710820114376131,0.5657812126476597,-1.1392330285696866
1.052205159997577,2.6228569838425635,-0.02683029075821914,0.5508834570792527,-1.1702401521383616
1.0460641830186805,2.497859150554387,-0.026569509058272472,0.5360542236875077,-1.2009265063261012
1.039981377044534,2.376264265137607,-0.026324455934305567,0.5212926060236357,-1.2311842482868203
1.0339532866288623,2.2580568663752096,-0.02609372159327508,0.5065978179972012,-1.2609028906531619
1.0279767818278096,2.1432216592860236,-0.025875885372400778,0.49196920016963996,-1.2899689219056323
1.0220490608807238,2.0317434851459097,-0.025669514167476662,0.47740622713570835,-1.31826540195577
1.0161676533003716,1.9236072896713452,-0.02547316044428049,0.46290851612136347,-1.3456715299778286
1.0103304234728208,1.8187980890685616,-0.025285359795291975,0.4484758369463311,-1.3720621812877096
1.0045355748767162,1.7173009336146947,-0.025104627996922094,0.4341081235220741,-1.3973074098290543
0.9987816550428934,1.6191008683953036,-0.024929457514579846,0.41980548708132004,-1.4212719125950737
0.9930675613884064,1.5241828907740924,-0.0247583133940034,0.40556823136398223,-1.4438144521070524
0.9873925480743715,1.4325319041153506,-0.024589628467169625,0.39139687001638945,-1.4647872329107379
0.9817562340548511,1.3441326672163996,-0.02442179778952914,0.37729214649622816,-1.484035227975835
0.9761586125046773,1.2589697388356953,-0.024253172211982053,0.3632550568142515,-1.5013954509439533
0.9706000618381172,1.1770274166212928,-0.024082050975496296,0.34928687548491555,-1.516696170442766
0.9650813585581648,1.0982896696539974,-0.023906673198003534,0.3353891851002502,-1.5297560632791376
0.9596036922087361,1.0227400637195494,-0.023725208101375635,0.32156390998191164,-1.54038330440086
0.9541686827401117,0.9503616783154918,-0.023535743799706958,0.3078133544011883,-1.5483745933052881
0.9487784006428852,0.8811370142833042,-0.023336274437045414,0.2941402458787116,-1.5535141194051825
0.9434353902592727,0.815047890838791,-0.023124685420454486,0.2805477840735762,-1.5555724732160265
0.938142696745468,0.752075330661615,-0.02289873643871647,0.2670396957279659,-1.554305516796254
0.9329038972386285,0.6921994316104758,-0.02265604188162682,0.25362029602107955,-1.5494532366515594
0.927723136882759,0.6353992235747477,-0.022394048169413455,0.2402945564635124,-1.5407386167525938
0.9226051704980363,0.5816525089887534,-0.022110007349915306,0.22706817906687615,-1.5278665905036701
0.9175554108517234,0.5309356856724463,-0.021800946096282546,0.213947675857548,-1.5105231614615016
0.91257998472748,0.4832235510005063,-0.021463628897138147,0.20094045172452532,-1.4883748276921442
0.9076857983283162,0.43848908706019785,-0.02109451370428571,0.188054886886876,-1.461068510104093
0.902880614042642,0.3967032276161717,-0.02068969747549044,0.17530041262637533,-1.4282322797231861
0.8981731413435932,0.35783460962391445,-0.02024484773362993,0.16268756991501432,-1.3894773148991861
0.8935731457269029,0.32184931510771975,-0.019755114150633604,0.15022803457363065,-1.344401713178094
0.8890915813630695,0.28871061398740494,-0.0192150107522647,0.13793458386386986,-1.2925970543971068
0.8847407559380394,0.2583787256250929,-0.01861825381321562,0.12582096711273566,-1.233658983341278
0.880534540619131,0.23081062735329994,-0.017957531568596127,0.11390162655501332,-1.1672035666065674
0.8764886452299843,0.20595995290338465,-0.017224167467462047,0.1021911947486064,-1.092891762816945
0.87262099016246,0.18377704278513107,-0.0164076157284014,0.09070367584488592,-1.0104649257540346
0.8689522247947663,0.16420923067169468,-0.015494691816760551,0.07945121209805314,-0.9197945323267667
0.8655064710501303,0.1472014682769256,-0.014468384223551834,0.06844237394340476,-0.8209485732799188
0.8623124162477571,0.13269738919145624,-0.01330600536230263,0.05768005288673321,-0.7142738261918252
0.8594049526243648,0.12064085334472452,-0.011976287015021111,0.0471593892587454,-0.6004852165489494
0.8568276895942881,0.11097783125709526,-0.010434695855210107,0.036866889764089854,-0.48073823822629613
0.8546369437246397,0.1036580704484038,-0.008615268228689691,0.026783204224509,-0.35663885031618375
0.8529086326697954,0.09863511197870167,-0.006413523552565199,0.016894695512019088,-0.23012774721406476
0.8517529105414183,0.09586086402807581,-0.003636234085495962,0.007229199710784385,-0.103183168171539
