x,y,v_x,v_y,omega
2.375,32.48,0.0,2.769230769230769,-3.591836734693878
2.3744099874706324,31.986597869560196,-0.006555694770749664,2.713015124544788,-3.401247831788775
2.372713997543682,31.50314757689172,-0.01228863775092454,2.658654793993841,-3.2254874457305434
2.3700513608666633,31.029324201371857,-0.017296214215948073,2.6060493784490784,-3.0630375577217537
2.366545003801059,30.564820223052898,-0.02166330873521185,2.5551059362060418,-2.9125653276284953
2.3623035392549796,30.109344246379404,-0.02546407511011268,2.5057382490549753,-2.7728972694205747
2.357423063780614,29.662619847654238,-0.028763430160616596,2.457866181224677,-2.6429974602033757
2.3519887063825538,29.224384530848383,-0.031618318706720897,2.4114151166181284,-2.5219490857693625
2.3460759667618527,28.79438877872982,-0.034078788189954586,2.366315462477001,-2.4089387578404247
2.339751874436764,28.37239518822908,-0.03618890431103364,2.322502209753454,-2.3032431430295395
2.333075995041797,27.95817768055626,-0.037987533410823,2.279914542166752,-2.2042175271830744
2.32610130588447,27.551520777906028,-0.03950901278169402,2.2384954872802867,-2.1112860058359626
2.3188749593555777,27.152218939688318,-0.04078372642822166,2.1981916040276435,-2.0239330455766593
2.3114389499034202,26.760075952145634,-0.04183860081797711,2.1589527020021393,-1.941696204908837
2.303830697883727,26.37490436599624,-0.04269753273416762,2.1207315885466933,-1.8641598388249396
2.2960835615959367,25.996524977402387,-0.04338175935239088,2.083483840273883,-1.7909496404175227
2.2882272871417175,25.62476634812553,-0.04391017902782137,2.0471675961356657,-1.7217278967355045
2.280288404335612,25.25946436121212,-0.04429962992890479,2.011743369568883,-1.6561893557580076
2.272290575713833,24.900461808968515,-0.04456513253530872,1.9771738775822758,-1.594057617611023
2.264254904687684,24.547608010341886,-0.044720101088568234,1.9434238849358318,-1.5350819766301314
2.256200208041884,24.200758455135315,-0.04477652830921132,1.9104600618038652,-1.4790346520862303
2.2481432572598705,23.85977447275642,-0.04474514704649258,1.8782508535171947,-1.4257083547502347
2.2400989925471393,23.524522923436052,-0.044635571983853393,1.8467663611535223,-1.3749141443071773
2.2320807129025875,23.1948759100618,-0.04445642406672357,1.8159782318937387,-1.3264795392072404
2.2241002451424765,22.870710508954303,-0.04421543993451096,1.7858595581895464,-1.2802468460780059
2.216168094400154,22.55190851807643,-0.043919568313515144,1.756384784897901,-1.236071680495567
2.2082935782972446,22.238356221308646,-0.04357505505214631,1.7275296236330704,-1.1938216548668166
2.200484946700404,21.929944167551376,-0.043187518246081365,1.6992709736699019,-1.1533752125300039
2.192749488735066,21.626566963528724,-0.04276201470212281,1.6715868488040488,-1.1146205900333086
2.185093628518077,21.328123079268938,-0.04230309881997517,1.6444563096379967,-1.0774548919824718
2.177523010889912,21.034514665327983,-0.041814874826300585,1.6178594008170588,-1.0417832649253136
2.1700425782701176,20.745647380903513,-0.04130104317141513,1.5917770927881787,-1.0075181585187734
2.162656639623353,20.46143023205982,-0.04076494179263384,1.5661912276972882,-0.9745786637491874
2.1553689324048966,20.18177541934996,-0.04020958285688395,1.5410844690789127,-0.9428899192874414
2.148182678251289,19.906598194180578,-0.039637685516533315,1.5164402550253475,-0.912382578189723
2.141100633091793,19.635816723318563,-0.03905170514453661,1.4922427545525991,-0.8829923281289397
2.1341281357475754,19.369353269403693,-0.03842048756898733,1.4684622889459593,-0.8533115268260678
2.1272694319755816,19.10713269282462,-0.03778733211983514,1.445099673043729,-0.8248839790909647
2.1205247508166294,18.849081033023754,-0.037153569646300864,1.4221409914103382,-0.7976427186844554
2.1138940954779093,18.59512678142392,-0.036520378561697465,1.3995729152544807,-0.771525031629922
2.1073772693798403,18.345200778647783,-0.035888800305740154,1.3773826711470674,-0.7464721430226843
2.1009738995631024,18.099236117189328,-0.035259753213567176,1.3555580117246646,-0.7224289299935399
2.094683457727135,17.857168049193277,-0.03463404496384531,1.3340871882314695,-0.6993436583887976
2.088505279142119,17.618933899023567,-0.03401238375855865,1.3129589247652937,-0.67716774097955
2.0824385796505744,17.384472980325306,-0.03339538836971458,1.2921623941042695,-0.6558555152352732
2.0764824709517358,17.15372651730582,-0.03278359717293491,1.2716871950011712,-0.6353640388945181
2.07063597434147,16.92663756997998,-0.032177476274463004,1.2515233308414815,-0.6156529017414294
2.0648980330624034,16.703150963142974,-0.03157742682627847,1.2316611895697125,-0.5966840521536786
2.0592675234028173,16.483213218850047,-0.03098379161356613,1.2120915247961184,-0.5784216371273743
2.053743264668536,16.26677249219814,-0.030396860989563294,1.1928054380028732,-0.5608318546095783
2.0483240281392563,16.053778510218123,-0.02981687822465573,1.1737943617751065,-0.543882817080937
2.043008545109393,15.844182513699447,-0.0292440443293779,1.1550500439879594,-0.5275444254311307
2.037795514103337,15.637937201780783,-0.028678522404581866,1.1365645328860845,-0.5117882522596767
2.032683607345951,15.434996679151322,-0.028120441566372528,1.118330162996829,-0.4965874338152542
2.0276714765610233,15.235316405717562,-0.02756990048837748,1.10033954182274,-0.4819165698591637
2.0227577581631184,15.038853148599838,-0.02702697059945192,1.082585537263064,-0.46775163080370746
2.017941077901783,14.845564936331577,-0.02649169897094642,1.0650612657176104,-0.4540698715349493
2.013220055011226,14.655411015142317,-0.025964110924129903,1.047760080829736,-0.44084975138220184
2.008593305913385,14.46835180721309,-0.025444212385210982,1.030675562828325,-0.4280708597443055
2.004059447517583,14.284348870799704,-0.024931992012593412,1.0138015084314989,-0.41571384692585733
1.9996171001557848,14.1033648621259,-0.024427423118496452,0.9971319212774249,-0.40376035977550223
1.9952685895102296,13.925583601585274,-0.023889361832116224,0.9782154180628582,-0.44064499116153577
1.9910131727739044,13.75119797509933,-0.023393046349275037,0.9594026540031789,-0.47874395449750656
1.98684345308848,13.580189542159552,-0.02293717237766336,0.9406910453276814,-0.5179547930909638
1.9827522704007523,13.412540318232313,-0.02252041304153303,0.9220781094194124,-0.5581764801377292
1.9787327052361938,13.24823275677937,-0.02214142212022861,0.9035614622799525,-0.5993091968075737
1.9747780819208531,13.08724973170277,-0.02179883693911168,0.885138816348951,-0.6412541112208054
1.97088197131239,12.929574520150215,-0.02149128093270226,0.8668079786794252,-0.6839131573476771
1.9670381930976917,12.775190785616527,-0.021217365897277102,0.8485668494726616,-0.7271888128365884
1.96324081771165,12.624082561275827,-0.020975693947630002,0.8304134209795567,-0.7709838747429605
1.9594841679292463,12.476234233477605,-0.020764859190190964,0.812345776778466,-0.8152012320878308
1.9557628201811315,12.331630525337662,-0.020583449122193728,0.7943620914431319,-0.8597436341230511
1.9520716056413696,12.19025648035215,-0.020430045764049255,0.7764606306180986,-0.9045134531177099
1.9484056111349504,12.05209744595943,-0.02030322652949834,0.7586397515232506,-0.949412440407219
1.944760179912105,11.917139056970093,-0.020201564835450214,0.7408979039138138,-0.9943414743614443
1.9411309123363574,11.785367218780383,-0.020123630450633954,0.7232336315274122,-1.0392002988302693
1.937513666533667,11.656768090277904,-0.020067989579260963,0.7056455740556787,-1.0838872505128867
1.9339045590509831,11.531328066341281,-0.02003320467278158,0.6881324696845904,-1.1282989735696611
1.93029996557408,11.409033759826695,-0.020017833959475005,0.670693158255255,-1.1723301196512501
1.9266965217567078,11.289871982924229,-0.020020430677992525,0.6533265851054859,-1.2158730313574193
1.923091124215956,11.173829727755127,-0.020039541997026965,0.6360318056623161,-1.2588174069562503
1.9194809317523185,11.060894146067504,-0.020073707598948345,0.6188079908668311,-1.3010499439919165
1.9158633668573717,10.95105252787219,-0.02012145790046054,0.6016544335255687,-1.3424539591847784
1.9122361175773082,10.844292278842115,-0.020181311878021992,0.5845705556974928,-1.3829089817805083
1.9085971398068997,10.740600896277517,-0.020251774459850658,0.5675559172425028,-1.4222903172351964
1.9049446600959399,10.639965943414772,-0.020331333439702597,0.5506102256768995,-1.4604685778318756
1.9012771790589518,10.54237502182853,-0.020418455860164504,0.533733347503579,-1.4973091765131188
1.8975934754891046,10.447815741644277,-0.020511583804804744,0.5169253212103251,-1.5326717798892042
1.893892611289059,10.356275689241048,-0.02060912952903617,0.5001863721588689,-1.5664097160501869
1.8901739373450555,10.267742392080883,-0.02070946984878091,0.4835169296207432,-1.5983693324865864
1.8864371004862248,10.182203280252175,-0.020810939693781803,0.46691764625378607,-1.628389299128313
1.8826820516891267,10.099645644257322,-0.0209118247184195,0.45038942035567675,-1.656299851276782
1.8789090557082528,10.020056588510272,-0.021010352846846662,0.4339334212782131,-1.6819219670784793
1.8751187023370712,9.943422979935825,-0.021104684610727065,0.41755111843785153,-1.7050664742398158
1.871311919531637,9.869731390979208,-0.0211929021163193,0.4012443144134609,-1.7255330810159477
1.8674899886604592,9.79896803624085,-0.02127299645232027,0.38501518267941104,-1.7431093272707756
1.8636545621809757,9.73111870184772,-0.021342853319719936,0.3688663105776003,-1.7575694528204846
1.8598076840856481,9.666168666559543,-0.02140023662836571,0.35280074817992557,-1.7686731826571285
1.8559518135107247,9.604102613488255,-0.021442769759670303,0.33682206372327655,-1.776164432464677
1.852089851959992,9.544904531186454,-0.02146791413736153,0.3209344062967177,-1.7797699437606942
1.848225174667077,9.488557602743722,-0.021472944672803255,0.3051425764003015,-1.779197867002153
1.8443616667070803,9.435044081432263,-0.021454921549383072,0.2894521048381455,-1.774136324511464
1.840503764577555,9.384345151388285,-0.021410657667566436,0.27386934009495634,-1.7642520051904413
1.8366565041095884,9.336440771839282,-0.021336680865396196,0.2584015437828334,-1.7491888727318146
1.8328255757568406,9.291309503547424,-0.021229189720690753,0.2430569927933448,-1.7285671128323488
1.8290173885677994,9.248928316524765,-0.021084001268654333,0.22784508523621025,-1.701982509178128
1.8252391445130334,9.209272378823876,-0.02089648822874461,0.21277644477366228,-1.6690065319638945
1.8214989253784526,9.172314827524865,-0.02066150215548595,0.19786301410424623,-1.6291875595890166
1.817805795252419,9.138026525235063,-0.020373277022668366,0.1831181224491182,-1.5820538522431347
1.8141699229027055,9.106375808940491,-0.020025304640813802,0.16855650304612432,-1.5271191797500467
1.8106027303471044,9.07732824353003,-0.0196101681991977,0.15419422373677466,-1.4638924052584317
1.8071170771466951,9.050846400590917,-0.019119311805351362,0.14004847558670647,-1.3918928716788666
1.8037274951812152,9.026889695133807,-0.01854271003331288,0.12613714060340053,-1.3106741435364846
1.800450497187847,9.005414329606374,-0.017868378781889096,0.11247803192361684,-1.2198594774904403
1.797304996228155,8.986373415817233,-0.017081631881352574,0.09908767684460806,-1.1191931229805
1.794312895773805,8.969717368227379,-0.016163928722538738,0.08597951859822414,-1.0086116118678186
1.7914999464699972,8.95539467637522,-0.015091063541992883,0.07316150198129504,-0.8883372642769889
1.7888970246375315,8.94335314502948,-0.013830290152071432,0.060633290749174576,-0.7589897043086968
1.7865420875479772,8.93354158653296,-0.012335677509642559,0.048384025878834544,-0.621696589233695
1.7844832546394036,8.9259116690377,-0.010540243696730312,0.036392835179622336,-0.4781595729341156
1.7827839541376078,8.920419007074226,-0.008340872989889746,0.02463674219229036,-0.33060159810816425
1.7815328073376049,8.91702115612308,-0.005560758121254283,0.013117157264891693,-0.18150897794526025
1.780870463329677,8.915664384737788,-0.0017986197446100624,0.0019580803494779683,-0.03313384737460834
