x,y,v_x,v_y,omega
2.375,32.48,0.0,3.1794871794871797,-3.3469387755102042
2.3739201019470535,31.758580473172028,-0.009390417851709014,3.0937260972777803,-3.095754660759403
2.3708667876987732,31.056412395598485,-0.017160140828990495,3.0120832729269407,-2.8730076333805123
2.3661818627787605,30.37258410694704,-0.023578336736334558,2.9342496718682205,-2.674564141911532
2.3601507765070937,29.706251413353044,-0.028865891712943285,2.8599476637317403,-2.4969962163411794
2.353012637628724,29.056630840125354,-0.03320488114244496,2.788926886074259,-2.337445280049869
2.3449682846667113,28.422993756744603,-0.03674601417940717,2.72096079549751,-2.1935150916448216
2.3361868229319485,27.80466123217905,-0.03961452264461477,2.6558437659420715,-2.0631869979682596
2.3268109454500605,27.200999506893993,-0.04191484676310759,2.593388627841055,-1.944752411566845
2.3169612839136287,26.611415989561237,-0.04373438398847489,2.533424566356791,-1.8367586834378806
2.306739981837392,26.035355703209586,-0.04514650363097277,2.4757953149619274,-1.7379654644321174
2.2962336409016304,25.47229811866988,-0.046212982766955915,2.4203575940790034,-1.6473093319603829
2.2855157597833986,24.921754323564592,-0.04698598347853698,2.366979754662609,-1.5638749691105693
2.274648760243368,24.38326448342295,-0.04750966469564408,2.3155405943951615,-1.4868715677123692
2.2636856761273667,23.856395558244422,-0.04782150153045204,2.2659283202007217,-1.415613418570621
2.2526715659730114,23.340739243337936,-0.04795336937698359,2.2180396355078846,-1.3495038749444008
2.241644698123625,22.83591010779466,-0.047932438008985605,2.1717789344336365,-1.288022046731815
2.230637547921571,22.34154390770917,-0.04778191157409449,2.1270575880488694,-1.23071171542913
2.2196776391334616,21.857296054399622,-0.04752164310511592,2.08379331029502,-1.1771720631353795
2.208788255832629,21.382840220511696,-0.0471686464673403,2.0419095930782527,-1.1270498896323897
2.197989046209152,20.917867069115733,-0.04673752417159143,2.001335201669258,-1.080033055096171
2.1872965359472385,20.462083092795268,-0.04624082593200469,1.9620037228565246,-1.035844936214589
2.1767245657119707,20.01520955133631,-0.045689350026844336,1.9238531593953005,-0.9942397233740742
2.1662846647727725,19.57698149800703,-0.045092397270534164,1.8868255652071184,-0.9549984184040203
2.155986370742328,19.147146885604965,-0.044457985602896925,1.8508667165499864,-0.9179254178713578
2.1458375037349393,18.725465744473944,-0.043793031852655644,1.8159258150240971,-0.8828455874407416
2.135844401874637,18.311709425581455,-0.04310350606301289,1.7819552188236474,-0.8496017493968889
2.126012123953062,17.90565990251917,-0.04239456282025303,1.7489101991092622,-0.8180525188736892
2.116344624104189,17.507109126962895,-0.04167065325690055,1.7167487187714132,-0.7880704352823606
2.10684490259067,17.115858432716834,-0.04093562077369998,1.6854312311943247,-0.7595403443750495
2.097515136155352,16.731717983983533,-0.04019278301167561,1.654920496921335,-0.7323579937128573
2.0883567908577705,16.354506263954566,-0.039445002184685024,1.6251814163740226,-0.7064288103388434
2.0793707198698206,15.984049600217151,-0.03869474553661882,1.596180876994812,-0.681666834434008
2.070557248331915,15.620181723825041,-0.037944137401687575,1.5678876133713573,-0.657993786854731
2.06191624705809,15.262743359194854,-0.0371950041098348,1.5402720790650444,-0.6353382518715437
2.0534471966153927,14.911581842266337,-0.036448912783186835,1.5133063290090107,-0.6136349592784237
2.0451492430811,14.566550764611694,-0.0357072049063142,1.4869639114661384,-0.5928241524214771
2.037035491001208,14.2275107611812,-0.03484716100579047,1.4612100314077132,-0.5693321245528855
2.029117522628263,13.894327998580678,-0.034004737889382915,1.4360313825098745,-0.5470369220156015
2.0213912539741794,13.566872772300748,-0.033180206928735766,1.4114053677503902,-0.5258621583775839
2.0138525516459715,13.245020443367505,-0.03237372636002863,1.387310536016949,-0.5057372455615359
2.0064972569136668,12.928651183130611,-0.03158535826870713,1.3637265095212467,-0.4865968846267889
1.9993212061362702,12.617649734117915,-0.030815083273872272,1.3406339166761079,-0.4683806071700849
1.9923202480387616,12.311905185754828,-0.030062813226201517,1.3180143299594445,-0.4510323617410082
1.9854902582660405,12.011310763850858,-0.029328402188764632,1.2958502083359424,-0.4345001403501586
1.978827151582128,11.715763632849558,-0.02861165593221417,1.2741248438492647,-0.41873564074006225
1.972326892033417,11.425164709922882,-0.02791234014353461,1.25282231203487,-0.40369396060322144
1.9659855013521153,11.139418490067634,-0.027230187519959398,1.2319274258368516,-0.3893333203795717
1.9597990658392699,10.85843288143107,-0.026564903896085384,1.2114256927419516,-0.37561481165622923
1.9537637419350378,10.582119050155633,-0.025916173532021067,1.1913032748705408,-0.3625021685336871
1.94787576065645,10.310391274089877,-0.02528366367308816,1.1715469517882184,-0.34996155962127723
1.9421314310592217,10.043166804764574,-0.02466702847672488,1.1521440858231111,-0.33796139858651364
1.9365271428596114,9.7803657370802,-0.024065912389451955,1.1330825896932029,-0.326472171412777
1.9310593683345627,9.521910886194966,-0.02347995304575259,1.114350896265349,-0.31546627872191274
1.9257246636029102,9.267727671141877,-0.02290878375122661,1.0959379302832457,-0.304917891696305
1.9205196693770377,9.017744004738997,-0.02235203560418759,1.077833081915705,-0.29480282029197025
1.9154411112627348,8.771890189389921,-0.02180933930279374,1.0600261819893122,-0.28509839257286584
1.9104857996748652,8.530098818401331,-0.021280326678680624,1.0425074787810473,-0.2757833441192462
1.9056506294276492,8.292304682471972,-0.020764631992761972,1.0252676162568715,-0.266837716571519
1.9009325790506908,8.058444681032483,-0.020261893024268673,1.0082976136517212,-0.25824276446738886
1.8963287098751873,7.828457738138621,-0.019771751980108346,0.9915888462949255,-0.2499808696156315
1.8918401550545627,7.602384203661096,-0.019259159503585095,0.9742679752487824,-0.2593871888628857
1.8874664036957955,7.38027983105977,-0.018773461007432487,0.9570743951975411,-0.271114258296982
1.8832012235691302,7.162115780109389,-0.01831506183313651,0.940004308718807,-0.28503521269850457
1.8790383058995082,6.947864066172844,-0.017884222250533776,0.9230540733380911,-0.3010272771361476
1.8749712972794503,6.737497525407914,-0.017481070097795898,0.9062201941830335,-0.31897147242845
1.8709938287915597,6.53098978160099,-0.01710561240559945,0.8894993171815346,-0.3387523324877628
1.8670995425654366,6.3283152145060875,-0.01675774608242802,0.8728882227741379,-0.36025763235132613
1.8632821159768262,6.129448929573922,-0.01643726773157421,0.856383820114257,-0.3833781257557108
1.859535283681276,5.934366728961496,-0.016143882664514445,0.8399831417329365,-0.4080072911541735
1.8558528576603222,5.7430450837177105,-0.01587721316986787,0.8236833386478097,-0.434041085111957
1.8522287454451987,5.555461107044852,-0.015636806092076152,0.8074816758987929,-0.46137770204243284
1.8486569666711505,5.371592528539466,-0.015422139769211212,0.7913755284958778,-0.4899173392673403
1.8451316681045786,5.191417669319215,-0.015232630374893126,0.7753623777671693,-0.5195619663972498
1.8416471372753742,5.014915417944707,-0.015067637705143636,0.759439808098103,-0.5502150980337159
1.838197814837869,4.842065207047032,-0.01492647044707665,0.7436055040555991,-0.5817815687922423
1.8347783057757558,4.67284699057285,-0.01480839096260228,0.7278572478938038,-0.6141673096349347
1.831383389559129,4.50724122155934,-0.01471261961676267,0.7121929174410639,-0.6472791244832447
1.8280080293553584,4.345228830350962,-0.014638338676894213,0.6966104843709369,-0.6810244660540953
1.8246473803898842,4.186791203169015,-0.014584695805490018,0.6811080128633799,-0.7153112098264145
1.8212967975481185,4.031910160943152,-0.0145508071663867,0.66568365866586,-0.7500474249990581
1.8179518423055048,3.8805679383112555,-0.014535760160688182,0.6503356685680279,-0.7851411412445517
1.814608289069378,3.7327471626905258,-0.014538615805632437,0.6350623803078751,-0.8205001099951592
1.811262131013598,3.588430833317936,-0.014558410766369729,0.6198622229320194,-0.8560315589175251
1.807909585485024,3.4476023001523792,-0.01459415904731544,0.6047337176380283,-0.8916419381384273
1.8045470990597552,3.3102452425237594,-0.014644853346326906,0.5896754791325887,-0.9272366566757896
1.801171352326718,3.176343647405723,-0.014709466071388249,0.5746862175459898,-0.9627198074046869
1.7977792644767003,3.045881787178576,-0.01478695001572256,0.5597647409509294,-0.9979938787461757
1.79436799777632,2.9188441967368597,-0.014876238683234394,0.5449099585422428,-1.0329594511058582
1.7909349620087844,2.7952156497819445,-0.014976246251859362,0.5301208845439699,-1.067514875907585
1.7874778189666856,2.674981134123424,-0.01508586715769656,0.5153966429214246,-1.101555934864097
1.7839944870866207,2.5581258257937414,-0.015203975277650715,0.5007364729888517,-1.1349754768993503
1.7804831463211883,2.444635061757939,-0.015329422682631778,0.48613973601813076,-1.1676630298857622
1.776942243351074,2.3344943109741756,-0.015461037927056802,0.4716059229711204,-1.1995043840832857
1.7733704972486253,2.2276891435302275,-0.015597623833365352,0.45713466349799015,-1.2303811438666863
1.7697669057147154,2.1242051975457947,-0.015737954722373042,0.4427257363666504,-1.2601702440049194
1.766130752023031,2.0240281434894527,-0.015880773031406007,0.42837908151459797,-1.2887434264167914
1.7624616128204258,1.927143645511645,-0.016024785252116917,0.41409481394459424,-1.315966672978531
1.7587593669489565,1.8335373193402127,-0.01616865710848452,0.39987323972004724,-1.3416995896154353
1.7550242054749923,1.7431946862215604,-0.016311007882509228,0.3857148743551928,-1.3657947365934202
1.7512566431337753,1.656101122317672,-0.016450403780249263,0.371620463939482,-1.3880968996710867
1.747457531424467,1.5722418028853475,-0.016585350213735035,0.35759100938507843,-1.4084422966302483
1.7436280736216212,1.491601640468378,-0.01671428285448853,0.3436277942407552,-1.4266577137497367
1.7397698420048626,1.4141652162247063,-0.016835557291239308,0.32973241657378255,-1.442559567137965
1.7358847976502019,1.3399167033883472,-0.01694743709711323,0.3159068254815074,-1.4559528846630343
1.731975313174966,1.2688397817299588,-0.01704808007885215,0.3021533628523156,-1.4666302057638148
1.7280441988852173,1.2009175417318048,-0.017135522440700178,0.2884748110446889,-1.4743703990574002
1.724094732841778,1.136132377035775,-0.017207660545728733,0.27487444718165843,-1.4789374019159685
1.720130695441288,1.0744658635639297,-0.01726222989331442,0.26135610474744536,-1.4800788928618602
1.716156409206212,1.0158986235622152,-0.017296780846477407,0.24792424309353853,-1.4775249178912795
1.7121767845983842,0.9604101727009215,-0.017308650525939034,0.23458402526554467,-1.4709865074069013
1.7081973728239572,0.907978748315184,-0.01729493012125193,0.22134140417565318,-1.4601543438606386
1.7042244267982816,0.8585811169428688,-0.017252426623754116,0.20820321645316067,-1.4446975752333426
1.700264971711133,0.8121923596058629,-0.01717761761232021,0.19517728212949445,-1.4242629216394098
1.6963268870147852,0.7687856339268642,-0.017066597138531363,0.18227250638353626,-1.3984742997554565
1.6924190022141072,0.7283319133975219,-0.01691500982388573,0.1694989764802987,-1.366933304230419
1.6885512096766817,0.6907997062514006,-0.016717968762422857,0.15686804218161404,-1.329221053605841
1.6847345989824443,0.65615475994991,-0.01646995031790285,0.14439236044003811,-1.2849021539496022
1.6809816194010043,0.6243597629926079,-0.016164654738096407,0.13208587397129135,-1.2335318870120857
1.677306280434277,0.5953740646303025,-0.015794814537791323,0.11996367700527995,-1.1746682268049233
1.6737244058565035,0.5691534463829804,-0.015351920921108058,0.10804169905838983,-1.1078909584623324
1.6702539657660667,0.5456499984028476,-0.014825818995734805,0.09633610946451114,-1.032831006038977
1.6669155262127207,0.52481217933747,-0.014204090163795475,0.08486231719093469,-0.9492139382099832
1.6637328808401226,0.5065851683562386,-0.01347108698923216,0.0736334304719622,-0.8569220685910848
1.6607339698979486,0.4909116428593272,-0.012606399464453313,0.06265809558813276,-0.7560784821168814
1.657952259305539,0.4777331086537018,-0.011582388295630826,0.05193785402599943,-0.647151365151652
1.6554288666758783,0.466991812066162,-0.010360156310113352,0.04146472499609857,-0.5310643523487197
1.653215938466646,0.45863296381642726,-0.008882697683209841,0.031220911958140772,-0.4092745420984346
1.6513823136619354,0.4526063054898941,-0.007061865836014639,0.02118481262043629,-0.2837476016192532
1.650024354493885,0.44886442877776744,-0.004746474755726055,0.011353245745877892,-0.15673941760056093
1.64929491537128,0.44734900147543044,-0.0015964741364931268,0.0018243829701030095,-0.030331572013016533
