x,y,v_x,v_y,omega
2.375,32.48,0.0,2.769230769230769,-2.8571428571428577
2.3742074391399073,31.85080762636521,-0.006891833566022328,2.7020072623760663,-2.668142533284378
2.371951608088722,31.236753106079433,-0.012724088618197689,2.6375972618480965,-2.4978303395661863
2.368458292149114,30.63721076794385,-0.01765257172621809,2.575814374113508,-2.34381319317685
2.363920290734696,30.051595889591667,-0.02180831013828949,2.5164889159054424,-2.204059592032637
2.3585026198366545,29.47936107748822,-0.025301871583808245,2.45946597195061,-2.0768376358661578
2.3523468156204355,28.91999306086943,-0.028226860731142837,2.4046037377780065,-1.9606648532072444
2.3455745088815605,28.373009839971637,-0.030662763085159944,2.351772096115844,-1.8542673669525933
2.3382904052256124,27.837958139476203,-0.032677268705693555,2.300851386453155,-1.7565464921323375
2.330584778732579,27.314411126430677,-0.03432817905981609,2.2517313356818502,-1.666551282528813
2.322535565654633,26.801966358556683,-0.035664978139710486,2.204310124092008,-1.5834558644474404
2.3142101279969247,26.300243934208314,-0.03673013192732033,2.158493565893812,-1.50654064230921
2.3056667436097618,25.808884819595868,-0.03756016709148636,2.114194387257901,-1.4351766507483525
2.2969558688985545,25.32754933245604,-0.038186569527706035,2.0713315878710383,-1.3688124753904516
2.2881212118430594,24.85591576429584,-0.03863653530268795,2.0298298743915586,-1.3069632796596615
2.279200646256948,24.393679125788978,-0.038933600228717946,1.989619156102925,-1.2492015654079842
2.270226992763707,23.940550001956918,-0.039098169277724026,1.9506340946106202,-1.195149366562109
2.261228687545185,23.496253505497616,-0.03914796305725205,1.9128137006876618,-1.1444716316365224
2.2522303563242465,23.060528318091627,-0.039098395385688434,1.8761009724078959,-1.0968705961264889
2.2432533081081876,22.633125810765293,-0.03896289344960835,1.8404425695602122,-1.0520809819639476
2.23431596081504,22.213809235460502,-0.0387531699690647,1.8057885200466781,-1.0098658903101876
2.2254342089282146,21.80235298088061,-0.03847945513376618,1.7720919545610798,-0.970013277453253
2.216621741694576,21.39854188647661,-0.038150694723960446,1.739308866343255,-0.9323329226271625
2.207890319032208,21.002170609126136,-0.03777471973141208,1.7073978932260905,-0.8966538120736771
2.1992500111947626,20.6130430376569,-0.03735839189854838,1.6763201195498418,-0.8628218763313785
2.1907094073077076,20.230971750888976,-0.036907728858449874,1.6460388958234464,-0.8306980281175417
2.1822757971142996,19.855777515327812,-0.03642801195379375,1.6165196742736132,-0.8001564567061108
2.173955329618463,19.48728881904196,-0.03592387931435298,1.5877298586468331,-0.7710831417500281
2.1657531517658644,19.125341438612935,-0.03539940636041585,1.559638666822946,-0.7433745553275415
2.157673529845288,18.769778036357174,-0.03485817555763897,1.5322170049663064,-0.7169365258336403
2.149719955905231,18.42044778529617,-0.03430333696459782,1.5054373520859048,-0.69168324136928
2.141895241153409,18.077206019596023,-0.03373766087732914,1.4792736540022977,-0.6675363736476388
2.134215323045124,17.739915104467308,-0.03304423571645628,1.4536908253778333,-0.6411462565137475
2.126694304952323,17.408442851785043,-0.03235592161224646,1.4286765892505509,-0.6160978484736315
2.1193308660365964,17.082661045959036,-0.03167398200276865,1.404208678801688,-0.5923056912785319
2.1121234178555492,16.762446463321616,-0.030999480441122,1.3802659528280474,-0.5696907992931628
2.1050701474206397,16.447680621415884,-0.030333305949392344,1.356828324613109,-0.5481800923688718
2.098169054790001,16.138249544028913,-0.02967619518659872,1.3338766961431663,-0.527705884959894
2.0914179858811885,15.834043540794138,-0.029028751846553867,1.3113928972026925,-0.5082054252702077
2.0848146610997356,15.534957000288962,-0.028391463644339452,1.2893596289292824,-0.4896204789732264
2.0783567003024985,15.2408881956454,-0.02776471720120162,1.267760411449529,-0.4718969527014534
2.0720416445483405,14.951739101774528,-0.027148811095823594,1.2465795352537217,-0.45498455307255115
2.0658669750312044,14.66741522338037,-0.026543967314055842,1.2258020159998284,-0.43883647751410393
2.0598301295407744,14.38782543300676,-0.02595034129837976,1.2054135524663303,-0.42340913358193527
2.053928516752693,14.112881818422188,-0.02536803077189053,1.18540048739952,-0.4086618838448902
2.048159528612717,13.84249953870346,-0.02479708348877049,1.1657497710242049,-0.3945568137399362
2.0425205510465005,13.576596688429792,-0.024237504043547707,1.1464489270076987,-0.38105852009161334
2.037008973198232,13.31509416944504,-0.023689259854439815,1.127486020685803,-0.3681339182447053
2.031622195376512,13.057915569687886,-0.023152286421385254,1.108849629376402,-0.35575206598315146
2.0263576358641897,12.80498704862812,-0.02262649194663531,1.0905288146215584,-0.34388400260567664
2.0212127367299315,12.556237228882175,-0.022111761394742923,1.0725130962127545,-0.33250260170281204
2.016184968762728,12.311597093613077,-0.021607960059201348,1.0547924278663545,-0.3215824363338778
2.011271835636034,12.07099988934927,-0.021114936694655563,1.0373571744276038,-0.31109965543865725
2.0064708773955173,11.834381033883556,-0.020632526266359547,1.0201980904916625,-0.3010318704391202
2.001779673353229,11.601678028937986,-0.02016055236223578,1.0033063003393967,-0.2913580510935639
1.9971958444612228,11.372830377303142,-0.01969882930738343,0.9866732790940178,-0.282058429760602
1.992720788338008,11.147884304920108,-0.019214702198831073,0.969379524236721,-0.2913816267883367
1.988354156121303,10.926901228421151,-0.018756012729039297,0.9522124453194294,-0.30300841816686747
1.984090045116523,10.70985244626084,-0.018323213399482407,0.935168269118074,-0.3168123656372145
1.9799224654224497,10.49671010702701,-0.017916610027242798,0.9182433763934917,-0.33267106464711926
1.9758453722128964,10.287447174857721,-0.017536374403654666,0.9014342946438068,-0.35046585189198093
1.9718526952234026,10.082037396463143,-0.01718255593977057,0.8847376913959956,-0.37008152445957565
1.9679383656671954,9.880455269631717,-0.016855092375073124,0.8681503680076892,-0.39140606939529166
1.9640963407878176,9.682676013106182,-0.016553819619516134,0.8516692539534915,-0.41433040255389075
1.9603206262403645,9.488675537720617,-0.01627848079312025,0.8352914015731677,-0.43874811564508415
1.9566052964791352,9.298430418694572,-0.016028734521917345,0.8190139812620175,-0.4645552304137364
1.952944513316556,9.111917868984477,-0.015804162543989225,0.802834277086623,-0.491649958921464
1.9493325428064139,8.929115713596136,-0.015604276674637815,0.7867496828119829,-0.5199324689148523
1.9457637705936692,8.750002364764942,-0.01542852517531565,0.7707576983288416,-0.549304653276493
1.9422327158633257,8.574556797912749,-0.01527629856680073,0.7548559264728305,-0.5796699025584613
1.9387340440119776,8.402758528291937,-0.015146934923183157,0.7390420702298889,-0.6109328795935466
1.935262578157668,8.234587588228084,-0.015039724679508726,0.7233139303253605,-0.6429992951672807
1.9318133095965526,8.07002450487299,-0.014953914982364319,0.7076694031972156,-0.675775683713222
1.928381407308516,7.909050278379247,-0.0148887136092592,0.6921064793570535,-0.709169177964631
1.924962226608329,7.751646360406401,-0.014843292479323277,0.6766232421459673,-0.7430872814570605
1.9215513170341305,7.59779463286657,-0.014816790774575877,0.661217866896033,-0.7774376377278528
1.918144429560959,7.447477386814622,-0.014808317687783576,0.6458886205121984,-0.8121277949993155
1.9147375232237498,7.3006773013839386,-0.01481695480968886,0.6306338614937447,-0.847064965061577
1.9113267712316473,7.157377422663931,-0.014841758165117316,0.6154520404193718,-0.882155774987792
1.9079085666536848,7.017561142409281,-0.014881759904121225,0.6003417009253944,-0.9173060102173719
1.904479527754863,6.881212176463407,-0.014935969650851259,0.5853014812126361,-0.9524203474309996
1.9010365030614547,6.748314542769634,-0.015003375509220903,0.5703301161245075,-0.987402075513011
1.897576576235026,6.618852538832961,-0.015082944720591839,0.5554264398465638,-1.022152802750844
1.894097070836228,6.49281071848263,-0.015173623964609043,0.5405893892867542,-1.0565721482561579
1.8905955550619604,6.370173867770994,-0.01527433928989251,0.5258180082057465,-1.0905574154064255
1.8870698465431275,6.2509269798268186,-0.015383995656481549,0.5111114521783928,-1.1240032448978776
1.8835180172949668,6.13505522846101,-0.015501476066652725,0.49646899448080095,-1.1568012447694547
1.8799383989179872,6.022543940299233,-0.015625640254909364,0.4818900330129124,-1.1888395945021553
1.8763295881550035,5.913378565188559,-0.015755322901472635,0.4673740983842502,-1.220002620018866
1.8726904529188002,5.807544644593609,-0.015889331326382133,0.45292086331097187,-1.2501703361076102
1.8690201389157468,5.705027777660817,-0.016026442613210862,0.4385301534959248,-1.2792179524692449
1.8653180770034667,5.60581358458688,-0.016165400102269214,0.4242019601904913,-1.3070153392548427
1.8615839914356789,5.5098876668781465,-0.016304909182842803,0.4099364546680671,-1.333426447618441
1.8578179091648903,5.417235564030754,-0.016443632302275992,0.3957340048744747,-1.3583086804838966
1.8540201703940506,5.327842706095691,-0.016580183096329495,0.3815951945608459,-1.3815122084357891
1.8501914405920339,5.241694361517471,-0.016713119529902263,0.3675208452497532,-1.402879225432681
1.8463327242153493,5.1587755795486565,-0.01684093591952864,0.35351204143558945,-1.4222431389652008
1.8424453804104217,5.079071126443953,-0.016962053688537388,0.3395701594748887,-1.439427689428673
1.8385311410078433,5.002565414526128,-0.017074810681708887,0.32569690068012613,-1.4542459939794918
1.8345921311631068,4.929242423091189,-0.017177448837739407,0.31189432918890575,-1.466499511186414
1.8306308930486708,4.859085609982486,-0.017268099983443162,0.29816491523458855,-1.4759769246520922
1.8266504130613699,4.7920778125145915,-0.017344769471346975,0.284511584486219,-1.4824529468774148
1.8226541530793268,4.728201136272382,-0.017405317329027576,0.2709377741416833,-1.4856870495752457
1.8186460863867684,4.667436830157012,-0.017447436519306112,0.25744749642674825,-1.4854221342986313
1.8146307389880434,4.609765145913386,-0.017468627817432733,0.24404541003956193,-1.4813831689381183
1.810613237160607,4.555165180278252,-0.01746617068201458,0.23073689983118442,-1.4732758332887979
1.806599362261533,4.503614697875189,-0.01743708930993182,0.21752816454327975,-1.4607852433284407
1.8025956140203236,4.455089933118302,-0.017378112787541814,0.20442631160355465,-1.4435748632655447
1.7986092838500123,4.409565369774029,-0.017285627823862018,0.1914394566075198,-1.4212857729562152
1.7946485401340597,4.367013497632048,-0.01715562188007223,0.17857682288796814,-1.393536544931261
1.7907225280732257,4.32740454720053,-0.016983613431527166,0.16584883303827955,-1.3599241129932371
1.7868414876295744,4.290706205844451,-0.01676456433935581,0.15326717875371018,-1.3200262014996689
1.7830168945940281,4.256883322886395,-0.0164927664045248,0.14084484696849905,-1.2734061560761398
1.7792616321829262,4.2258976176864635,-0.01616168934418677,0.12859606781352742,-1.2196214043461102
1.7755902044326999,4.197707414694367,-0.01576376935343483,0.11653613211773431,-1.1582373135549053
1.7720190090066374,4.172267444238194,-0.015290103916672251,0.10468100228375965,-1.088848921557216
1.7685666975081524,4.149528768598461,-0.014729996070155162,0.09304661197477862,-1.0111138618972078
1.7652546687188861,4.12943891979549,-0.014070254271288475,0.08164772544235709,-0.9248005821589226
1.7621077687117004,4.111942364809714,-0.013294093617285447,0.0704962309556892,-0.829856075563613
1.7591553185615871,4.096981432434362,-0.012379385948914693,0.05959883317780261,-0.7264954125830142
1.7564326675190922,4.084497809931062,-0.011295840507563205,0.04895440598131612,-0.615308644629532
1.753983603131512,4.074434576136973,-0.010000371558353472,0.03855197483684976,-0.49736514903742624
1.7518642193098346,4.066738351909283,-0.008429052977969987,0.028371714099596403,-0.37426870007814794
1.750149568273149,4.061360282286142,-0.006480956036689332,0.018394108710334298,-0.24808578183984725
1.7489472336857985,4.058252400355052,-0.003974127331575129,0.008630951560020216,-0.12106030718630975
