x,y,v_x,v_y,omega
2.375,32.48,0.0,2.41025641025641,-6.163265306122449
2.3735786454118895,31.931829956698888,-0.012359605114004586,2.356439618448883,-5.801778170465354
2.369508219128987,31.39580014074937,-0.023035406041668635,2.3046892158947596,-5.47168815245662
2.363150803492031,30.871450988964167,-0.03224646906229397,2.2548686257156962,-5.1694039701926515
2.3548217010020744,30.358352813958945,-0.0401805091112429,2.206854635199283,-4.8918277811993205
2.3447960637267076,29.856102939831317,-0.04699894545716746,2.160535574606173,-4.636276564025416
2.333314466217383,29.364323220104367,-0.052841032884785054,2.115809814323825,-4.400417791439566
2.320587612506684,28.882657872329535,-0.0578272602517269,2.0725845141529784,-4.182216461368407
2.306800328796297,28.410771577183727,-0.062062163316856704,2.030774574071434,-3.9798912256032515
2.2921149634776885,27.94834780021771,-0.06563666554060567,1.990301747372167,-3.7918778587586393
2.2766742928301205,27.495087302410905,-0.06863003574259813,1.951093885730499,-3.6167986887482586
2.260604012455222,27.050706811937367,-0.07111153273477813,1.9130842923002804,-3.453436898506691
2.2440148800300173,26.614937834471053,-0.07314179270178417,1.8762111639285295,-3.3007148304333542
2.2270045634065703,26.187525583266915,-0.07477400402384395,1.8404171074118054,-3.157675596979159
2.209659238799004,25.76822801338068,-0.07605490560716545,1.8056487176859168,-3.0234674351935777
2.1920549762835226,25.356814946908898,-0.07702563800571564,1.7718562081556442,-2.897330348880004
2.1742589437192477,24.953067278174203,-0.077722471248851,1.7389930851895352,-2.778584665916852
2.156330455189788,24.556776249449477,-0.07817742900731879,1.707015860242852,-2.666621205256747
2.138321885945245,24.16774278918665,-0.0784188252930541,1.675883794216498,-2.5608928018600534
2.1202794724185927,23.78577690585041,-0.0784717271126187,1.6455586695769098,-2.460906981197729
2.102244013063009,23.41069713140142,-0.07835835424028303,1.6160045865012653,-2.366219610152359
2.0842514834001014,23.042330009263893,-0.07809842543717341,1.587187779912016,-2.2764293798378876
2.0663335766973807,22.680509622277306,-0.07770945893431268,1.5590764547539402,-2.1911729993555915
2.048518180038136,22.325077156694753,-0.07720703375477063,1.5316406372682532,-2.1101209988289638
2.0308297941527593,21.975880498768724,-0.07660501742241596,1.5048520403493848,-2.0329740560180207
2.0132899042027574,21.632773860873918,-0.07591576475151517,1.4786839413446011,-1.9594597740409814
1.9959510904304885,21.29562531662563,-0.0748565289203886,1.4530425303796282,-1.8818039754742049
1.9788600406806536,20.964308088335326,-0.07376129499121993,1.427976846057807,-1.8081136469314236
1.9620242446337777,20.63869240099594,-0.07263693150335244,1.4034639134151163,-1.7381348854667393
1.9454497050579673,20.318653625893806,-0.0714894995906507,1.3794819570382266,-1.6716331412089014
1.9291411130224323,20.004072013866008,-0.07032434419661009,1.3560103214643686,-1.6083915081951492
1.9131020033620625,19.694832446127823,-0.06914617458921377,1.3330293979981052,-1.5482091864478664
1.8973348927009748,19.390824201265062,-0.06795913550720113,1.310520557330253,-1.490900096120082
1.881841402057029,19.091940737119604,-0.06676687009232837,1.2884660874128666,-1.4362916269081527
1.8666223658012213,18.798079486415155,-0.0655725756103465,1.2668491361040757,-1.384223507980706
1.8516779285302438,18.50914166507606,-0.06437905283293817,1.2456536581489102,-1.3345467854495405
1.837007631222796,18.2250320922865,-0.06318874984052018,1.2248643661081413,-1.2871228959505407
1.822610487886609,17.945659021422003,-0.062003800908932906,1.2044666848874945,-1.2418228262443374
1.8084850537602588,17.670933981061104,-0.060826061059328584,1.184446709555125,-1.1985263499158367
1.7946294860089516,17.4007716253531,-0.05965713677812561,1.1647911661666206,-1.157121333272866
1.781041597744091,17.135089593079314,-0.058498413351096956,1.1454873753445698,-1.1175031034374825
1.7677189061005838,16.87380837480049,-0.057351079201139965,1.1265232183843605,-1.0795738724063275
1.7546586750216875,16.616851187533115,-0.05621614757186919,1.1078871056797701,-1.0432422115436164
1.7418579533272647,16.364143856442578,-0.05509447585789586,1.089567947281404,-1.0084225715746107
1.72931360857624,16.115614703082095,-0.05398678284666472,1.0715551254184346,-0.9750348436795979
1.717022357176765,15.871194439743565,-0.052893664105292476,1.0538384688296463,-0.9430039577578186
1.704980791147043,15.630816069520328,-0.05181560571837659,1.0364082287637184,-0.9122595143454759
1.6931854018851802,15.394414791712567,-0.050752996558691775,1.01925505652117,-0.8827354470388469
1.6816326012669953,15.161927912234148,-0.049706139251611776,1.0023699824216168,-0.8543697125985714
1.6703187403558664,14.933294758705301,-0.048675259975596546,0.9857443960900946,-0.8271040061995899
1.6592497062547604,14.708580811415462,-0.047577210468803824,0.9682899281693598,-0.8225755562382159
1.6484290511851714,14.487865816990713,-0.0465154423102305,0.950970892915427,-0.8207758099325005
1.6378484099624004,14.271119108416563,-0.04549013353995013,0.9337830946858746,-0.8215568624805294
1.627499393507688,14.058310962631595,-0.04450131389233319,0.9167225208356015,-0.8247759207142877
1.6173736214363292,13.849412559479525,-0.04354887803252682,0.8997853326606613,-0.8302949377522042
1.6074627517248783,13.644395942664861,-0.042632597719218915,0.8829678570320767,-0.83798026437731
1.597758507694984,13.443233982558073,-0.04175213297551405,0.8662665786791178,-0.8477023155362738
1.5882527025333544,13.245900340705095,-0.0409070423430036,0.8496781330859112,-0.8593352504425827
1.5789372615508015,13.052369435903739,-0.04009679228789151,0.8331992999693654,-0.8727566648435571
1.5698042423681309,12.862616411716576,-0.03932076582228654,0.8168269973103109,-0.8878472940764061
1.5608458532027472,12.67661710529584,-0.03857827039844233,0.8005582759134926,-0.9044907255937107
1.5520544694171174,12.494348017401087,-0.03786854512877241,0.7843903144756591,-0.9225731196840243
1.543422648478626,12.315786283494766,-0.03719076737984783,0.7683204151445135,-0.9419829371490422
1.5349431434697536,12.14090964580435,-0.0365440587842618,0.7523459995547541,-0.9626106727252566
1.5266089152778923,11.9696964262425,-0.03592749071018239,0.7364646053308875,-0.9843485930553248
1.518413143585395,11.802125500078699,-0.03534008922457787,0.7206738830499811,-1.0070904780225858
1.510349236772586,11.638176270256928,-0.03478083958245667,0.7049715936610772,-1.0307313642612115
1.50241084083944,11.477828642254313,-0.034248690270985156,0.6893556063616653,-1.0551672896442599
1.4945918474453668,11.321062999375144,-0.033742556634,0.6738238969354543,-1.0802950375321638
1.48688640116105,11.167860178373196,-0.033261324099188916,0.6583745465597504,-1.1060118795346594
1.4792889060215333,11.018201445292888,-0.03280385102704393,0.6430057410950923,-1.1322153154994412
1.4717940314657034,10.872068471416384,-0.03236897119756434,0.6277157708744973,-1.1588028093904728
1.4643967177440127,10.729443309199116,-0.03195549594757181,0.6125030310147785,-1.1856715196573686
1.4570921808736799,10.590308368070442,-0.031562215968365254,0.5973660222780282,-1.2127180226240466
1.4498759172187388,10.45464638996895,-0.0311879027702542,0.582303352517568,-1.2398380273393284
1.442743707771178,10.322440424473225,-0.030831309817230753,0.5673137387496034,-1.2669260802338067
1.4356916222090588,10.193673803378573,-0.03049117333163328,0.5523960098995517,-1.2938752578155759
1.428716022807937,10.068330114557842,-0.030166212765077784,0.5375491102807213,-1.3205768455120177
1.4218135682832167,9.946393174930186,-0.029855130928139822,0.5227721038728194,-1.3469200006256354
1.4149812176432515,9.827847002344747,-0.029556613767209982,0.5080641794788393,-1.3727913972192631
1.4082162341361777,9.71267578616677,-0.029269329772562844,0.4934246568514092,-1.3980748505807998
1.4015161893776884,9.600863856331063,-0.028991928996909003,0.4788529938938594,-1.4226509187418273
1.39487896775232,9.49239565060168,-0.028723041658468916,0.464348795057313,-1.4463964783413576
1.3883027711874605,9.38725567974667,-0.028461276296831744,0.4499118210732195,-1.4691842719408315
1.3817861244073288,9.285428490302415,-0.02820521744344215,0.43554200018115985,-1.4908824237175318
1.375327880783775,9.186898624562598,-0.02795342276137436,0.42123944103462435,-1.511353920303127
1.3689272289121066,9.09165057738193,-0.02770441960095983,0.4070044474929218,-1.5304560534102591
1.3625837000535015,8.999668749333669,-0.027456700908650048,0.39283753553543693,-1.5480398208294728
1.3562971766011684,8.910937395702128,-0.02720872041598516,0.3787394525649229,-1.5639492824195744
1.35006790174564,8.825440570726286,-0.026958887023391585,0.3647111993989104,-1.5780208679117247
1.3438964905358275,8.743162066438021,-0.026705558279326556,0.35075405528165005,-1.5900826337797969
1.3377839425572848,8.664085345358256,-0.02644703283843662,0.33686960628152834,-1.5999534672090339
1.331731656478228,8.588193466227096,-0.02618154176205812,0.32305977746767794,-1.6074422364817658
1.3257414467481683,8.515469001851134,-0.025907238499330288,0.30932686927982267,-1.61234688912088
1.3198155627748538,8.445893948055325,-0.025622187355579393,0.29567359850981095,-1.614453502213809
1.3139567109543884,8.379449622633313,-0.025324350213684843,0.28210314429029526,-1.613535293945501
1.3081680799895623,8.316116553106863,-0.025011571219584548,0.26861919941798273,-1.609351612159811
1.3024533700064571,8.255874352045897,-0.02468155906828648,0.25522602719911247,-1.6016469256901422
1.2968168260751507,8.198701578686393,-0.024331866421334045,0.241928523753109,-1.5901498586024663
1.2912632768657628,8.14457558564682,-0.023959865834212987,0.2287322852866707,-1.574572328305346
1.285798179339969,8.093472349734782,-0.023562721346601687,0.21564367916582358,-1.554608878449584
1.2804276706120918,8.045366286228973,-0.02313735454798408,0.20266991653687957,-1.5299363405607331
1.275158628447023,8.000230046729495,-0.022680403409135977,0.18981912258900785,-1.500214019899335
1.2699987423486956,7.958034301857037,-0.0221881713589289,0.1771003980410561,-1.4650846887166529
1.2649565979189286,7.918747511986851,-0.021656562812957792,0.16452386169969,-1.424176794119912
1.2600417782703957,7.882335692165867,-0.021080999348197994,0.1521006584827745,-1.3771084614180358
1.2552649879802227,7.848762181843302,-0.020456307522871274,0.13984290953952327,-1.3234941127626223
1.2506382077250555,7.817987436644504,-0.019776564261190843,0.12776357045003023,-1.2629548403102948
1.2461748919035782,7.789968868823401,-0.01903487766469935,0.11587614973347407,-1.1951340790463583
1.241890228105231,7.764660775840067,-0.01822306840788411,0.10419422403463853,-1.1197205925014904
1.2378014875769896,7.7420144127375785,-0.017331197055085554,0.09273067250872878,-1.0364812135255277
1.233928511921448,7.721978281901066,-0.016346852123537054,0.08149655215659146,-0.945305900889349
1.2302944061999848,7.704498727498372,-0.01525406719353543,0.07049957308421678,-0.8462668789037546
1.2269265472005768,7.689520917060435,-0.014031663236099327,0.059742256810879205,-0.7396907771473065
1.2238580766613192,7.676990239729957,-0.0126506892791851,0.04922015475847909,-0.6262360175881846
1.2211301547541498,7.666853997116668,-0.011070370783156888,0.038921085357079596,-0.5069554982756749
1.218795472247018,7.659062923847451,-0.009231216235380804,0.028827377853506024,-0.38330776923243093
1.2169241480475612,7.653571386915608,-0.007041168107722614,0.018925117206004198,-0.25706615655818044
1.2156155543061546,7.650333392155012,-0.0043379079045090235,0.00923135897310637,-0.13007984907240924
1.2150346817997657,7.6492825010853345,-0.0007131573684391558,-9.317575851314035e-05,-0.003919934180944579
