x,y,v_x,v_y,omega
2.375,32.48,0.0,3.230769230769231,-2.979591836734694
2.3742659168874956,31.841711114659233,-0.007340831125044755,3.1521196226384083,-2.780461311109819
2.372177524621036,31.218818926142,-0.013543091539547265,3.076802262533942,-2.601298026310015
2.3689456034542133,30.610679167782553,-0.018776120128683786,3.0045953210604983,-2.4395151868210116
2.364749789151875,30.016689951465743,-0.02318202289469836,2.9352968421076144,-2.292920862317819
2.3597435399666185,29.43628802193156,-0.02688046895786501,2.8687224532342004,-2.1596496926420103
2.3540582366231457,28.868945435949108,-0.02997256447686642,2.804703406590322,-2.0381077004826476
2.3478065804727675,28.314166606101097,-0.032543997026914996,2.7430848918898136,-1.926927456296764
2.341085420819399,27.771485659384254,-0.03466759950677024,2.6837245752785877,-1.8249314688536928
2.333978115893468,27.240464069128638,-0.036405449752541445,2.626491327277585,-1.731102148819811
2.326556511223024,26.720688525387878,-0.03781059695189426,2.5712641101299853,-1.6445570529334899
2.3188826028590657,26.21176901433262,-0.038928486687688786,2.517931000422615,-1.5645283919077935
2.3110099400354427,25.713337081571346,-0.03979814154854367,2.4663883271901144,-1.4903459975127984
2.302984811614271,25.225044257938134,-0.040453142663172376,2.4165399091420166,-1.4214231088894804
2.294847252502072,24.746560629284676,-0.04092244845881707,2.368296377392557,-1.3572444665112369
2.2866318996737633,24.27757353431749,-0.04123107982427082,2.3215745722793044,-1.2973563028724853
2.2783687221680387,23.817786376624774,-0.04140069523297409,2.2762970046479007,-1.241357898339976
2.2700836451530533,23.36691753881545,-0.041450074916881706,2.232391373445311,-1.1888944334738611
2.2617990846991427,22.924699388203845,-0.04139552962222078,2.189790132670758,-1.139650919172994
2.2535344070740786,22.490877364763378,-0.04125124662842268,2.148430101733922,-1.093347026018282
2.245306324069162,22.06520914317956,-0.04102958342074394,2.108252114104276,-1.049732666326725
2.237129233971222,21.647463861785624,-0.04074131755865565,2.0692006998350503,-1.0085842083455527
2.2290155162368475,21.237421411988617,-0.04039585978508985,2.031223798135028,-0.9697012229980155
2.220975786637839,20.834871782509033,-0.04000143620499456,1.9942724966608176,-0.9329036806440916
2.2130191185803882,20.43961445338024,-0.03956524436951448,1.958300794627094,-0.8980295292276324
2.2051532354143943,20.051457835198008,-0.03909358729042039,1.9232653871952414,-0.8649325965657388
2.197384677811027,19.67021874958728,-0.038591988743255215,1.8891254689120147,-0.8334807688861539
2.1897189496697718,19.295721947272312,-0.03806529266929782,1.8558425542376635,-0.8035544054228733
2.18216064549947,18.927799660505126,-0.03751774903371953,1.8233803134342184,-0.7750449552487545
2.1747135617838493,18.566291186933206,-0.036953088122486384,1.7917044222849685,-0.7478537478044023
2.167380794476662,18.21104250227569,-0.03637458494938759,1.7607824242902075,-0.7218909329739236
2.1601648244631675,17.861905899433076,-0.035785115185556014,1.7305836041359646,-0.6970745502205065
2.1530675925638425,17.518739651882985,-0.03518720380769356,1.7010788713649199,-0.673329709357709
2.146090565435035,17.181407699417022,-0.034583067480382694,1.6722406532947147,-0.6505878681008828
2.139234793533375,16.849779354454476,-0.03397465153621781,1.644042796330725,-0.6287861937027707
2.1325009621507514,16.523729027330408,-0.03336366229001987,1.616460474909982,-0.6078669977977306
2.1258894363901484,16.203135969100213,-0.03275159531600626,1.5894701073919515,-0.5877772351173443
2.119400300835937,15.887884030532849,-0.03213976022611299,1.5630492782817045,-0.5684680580432202
2.113033394572231,15.577861436081395,-0.031529302410942275,1.5371766662328419,-0.5498944200691618
2.1067883421171616,15.272960571724873,-0.030921222139752617,1.5118319773323694,-0.5320147221863847
2.100664580767123,14.97307778566979,-0.030316391360635853,1.486995883218456,-0.5147904970084769
2.0946678948594912,14.678113879877458,-0.029650467715679692,1.4626431747048705,-0.49633367920592397
2.0888032044868097,14.387973212421471,-0.028996436011136766,1.4387634998549867,-0.4787172018001884
2.083068112030464,14.102562855647072,-0.028354488552320863,1.4153400678889883,-0.4618928919208851
2.077460187977124,13.82179316391737,-0.027724751981077277,1.3923568494080163,-0.4458158608891167
2.071976983171935,13.545577625670226,-0.027107296070815797,1.369798533063418,-0.43044424481253724
2.0666160394197775,13.273832723848525,-0.02650214145075807,1.347650485153592,-0.41573896839586766
2.0613748986355898,13.006477804141248,-0.02590926639111728,1.325898711919164,-0.4016635296502947
2.0562511107200723,12.743434950516573,-0.02532861276405613,1.3045298243275938,-0.38818380343966447
2.0512422403155997,12.484628867568148,-0.024760091280669472,1.2835310051566657,-0.37526786202539647
2.046345872578374,12.229986769232195,-0.024203586091588014,1.2628899782028642,-0.36288581096953887
2.041559618086433,11.97943827346635,-0.023658958827825025,1.2425949794555677,-0.3510096389297505
2.036881116988755,11.732915302511643,-0.02312605214895511,1.2226347300915106,-0.33961308003416185
2.032308042488117,11.490351988386873,-0.02260469285742371,1.202998411156179,-0.32867148766056015
2.0278381037393176,11.251684583290267,-0.02209469463056766,1.1836756398098875,-0.3181617185653584
2.0234690482346975,11.016851374606645,-0.021595860415634917,1.1646564470263319,-0.30806202641523833
2.019198663740374,10.785792604239958,-0.021107984527601025,1.1459312566405324,-0.2983519638698524
2.0150247798391354,10.558450392010766,-0.020630854484783245,1.1274908656513878,-0.289012292448968
2.0109452691293512,10.334768662876467,-0.02016425261305896,1.1093264256916,-0.280024899493178
2.006958048123463,10.114693077748846,-0.019707957445823328,1.0914294255846115,-0.27137272159488524
2.0030610778845204,9.898170967698938,-0.01926174494360414,1.0737916749144694,-0.26303967393663646
1.9992523644347169,9.685151271353465,-0.018825389554430264,1.0564052885402504,-0.2550105850278738
1.9955299589659166,9.475584475300248,-0.01839866513357336,1.039262671991916,-0.24727113637951245
1.9918919578786485,9.269422557332131,-0.017981345739106355,1.022356507689245,-0.23980780669908544
1.988336502672957,9.066618932370218,-0.017573206317808503,1.0056797419298706,-0.23260782022807983
1.9848617797117498,8.867128400917586,-0.0171740232942627,0.9892255725964607,-0.22565909887801766
1.981469287760584,8.671081205227221,-0.016750896217396193,0.9712463843071952,-0.25350774233264156
1.9781579507173568,8.478618882737653,-0.016362474214875376,0.9533768405884794,-0.282940774458308
1.9749208925747432,8.289719797722377,-0.016008107211261488,0.9356140095642909,-0.3138531685155606
1.9717513735054268,8.104362889622092,-0.015687083481901714,0.91795507143855,-0.3461421865112033
1.9686428015821564,7.9225276510304,-0.015398635750801939,0.9003973144783547,-0.3797071539017152
1.9655887433309656,7.744194106445917,-0.0151419467611072,0.8829381313664609,-0.4144492388041375
1.9625829332194198,7.569342791717929,-0.014916154354349757,0.8655750159134131,-0.45027123481171477
1.9596192821748608,7.397954734114375,-0.014720356091241851,0.8483055601221376,-0.48707734651351847
1.9566918852213786,7.230011432942135,-0.014553613443580173,0.8311274516002649,-0.5247729768125191
1.9537950283186438,7.065494840650313,-0.014414955583765337,0.8140384713179619,-0.5632645151248874
1.9509231944807177,6.904387344347349,-0.014303382795496426,0.7970364917116801,-0.6024591255243801
1.9480710692485328,6.746671747662482,-0.014217869526352143,0.7801194751369794,-0.6422645338691177
1.9452335455858787,6.592331252881131,-0.014157367100190575,0.7632854726765259,-0.6825888129134129
1.9424057282654033,6.441349443282228,-0.014120806104562681,0.7465326233125128,-0.7233401643639831
1.9395829378083858,6.293710265603359,-0.01410709846561341,0.7298591534761848,-0.7644266967872142
1.9367607140398033,6.149398012556652,-0.014115139220210533,0.7132633769908943,-0.8057561982113483
1.9339348193185557,6.0083973053146345,-0.014143807992265204,0.6967436954292685,-0.8472359021936555
1.9311012415015933,5.870693075880741,-0.014191970177358019,0.6802985989096758,-0.8887722460368138
1.928256196700175,5.73627054925354,-0.014258477836825847,0.6639266673623437,-0.930270619739711
1.9253961318865565,5.605115225287175,-0.014342170299360604,0.6476265723012975,-0.9716351041544629
1.9225177274101322,5.477212860142558,-0.01444187446488063,0.6313970791448682,-1.012768196692218
1.919617899483453,5.352549447214571,-0.0145564048019133,0.6152370501349956,-1.0535705227738292
1.9166938027006692,5.231111197409664,-0.014684563025923759,0.5991454479140822,-1.093940531056148
1.9137428326538886,5.112884518635465,-0.014825137441883206,0.5831213398279097,-1.1337741702789552
1.9107626287167174,4.997855994349241,-0.014976901929828066,0.5671639030343231,-1.1729645453698314
1.9077510770690198,4.886012360994783,-0.015138614547147591,0.5512724305102459,-1.2114015502131936
1.9047063140427278,4.777340484137319,-0.015309015715771718,0.5354463380643941,-1.2489714742341937
1.9016267298755285,4.67182733308287,-0.01548682595622196,0.5196851724801093,-1.285556579667708
1.8985109729675531,4.569459953741621,-0.015670743123531363,0.5039886209323826,-1.3210346460776663
1.8953579547459785,4.470225439463803,-0.015859439092215537,0.488356521845786,-1.3552784783644296
1.8921668552538922,4.374110899540618,-0.016051555828647143,0.47278887738608044,-1.3881553741520531
1.8889371295931086,4.28110342502119,-0.01624570077919007,0.457285867808201,-1.4195265460907185
1.8856685153660797,4.191190051448611,-0.016440441491097413,0.4418478679175721,-1.4492464942551773
1.8823610412799456,4.104357718062783,-0.01663429937024351,0.426475465940728,-1.477162323487977
1.8790150370964243,4.020593222954176,-0.016825742464969703,0.41116948514534757,-1.5031130002578363
1.8756311451350938,3.9398831735797195,-0.017013177148335588,0.3959310085992133,-1.5269285434261133
1.8722103335651155,3.8622139319685864,-0.017194938551446055,0.38076140751210047,-1.548429143308587
1.8687539117522014,3.7875715538510377,-0.017369279577695837,0.3656623736633948,-1.5674242036904804
1.8652635479643362,3.7159417208367422,-0.017534358300955448,0.3506359564795587,-1.583711302154148
1.8617412897823593,3.6473096646501837,-0.017688223518812426,0.33568460538601036,-1.5970750654378325
1.858189587611141,3.5816600823004237,-0.017828798193372755,0.32081121811158253,-1.607285958892809
1.854611321745363,3.5189770409232217,-0.017953860464406775,0.3060191956604386,-1.6140989929324192
1.8510098335130147,3.4592438708902016,-0.018061021859076327,0.2913125046697572,-1.6172523553845828
1.8473889611027812,3.4024430456416894,-0.018147702243259095,0.2766957478153722,-1.6164659879183363
1.843753080783232,3.34855604658312,-0.018211100952232634,0.26217424277033713,-1.6114401387561395
1.8401071543492091,3.2975632113162803,-0.018248163387996674,0.24775410989804747,-1.6018539449740286
1.8364567837952253,3.2494435634993586,-0.018255542151840644,0.23344236827118214,-1.5873641291659644
1.832808274434787,3.2041746228127437,-0.018229551452541355,0.21924703859497408,-1.567603942007146
1.8291687079871588,3.161732193959118,-0.018166113023741423,0.20517724994128453,-1.5421825514699574
1.8255460275865216,3.1220901345138046,-0.018060690982630866,0.1912433445118559,-1.510685181560199
1.8219491373112153,3.085220103020884,-0.017908211770430487,0.17745697041735167,-1.4726744534201002
1.8183880198139017,3.051091291386598,-0.017702963202705216,0.16383114592551914,-1.4276936004481233
1.8148738771770998,3.0196701499179177,-0.01743846316531566,0.15038026876129063,-1.3752725447775591
1.811419302592741,2.9909201200871145,-0.01710728267827285,0.13712002954673322,-1.3149382694271532
1.808038494490821,2.9648014003249585,-0.01670079834092728,0.12406716807480897,-1.2462315327309457
1.8047475313595105,2.941270785072831,-0.016208832972177983,0.11123898444645516,-1.1687327609022646
1.8015647364249685,2.920281637920887,-0.01561911637324243,0.09865248707299878,-1.0821008517538626
1.798511179393628,2.9017840854219585,-0.014916453940162468,0.08632303791629176,-0.9861293425717066
1.7956113921072991,2.885725544191324,-0.014081418923126442,0.0742623743900712,-0.8808241584248802
1.792894423544786,2.872051704664159,-0.01308826670200683,0.062476020881595144,-0.766504216290051
1.790395440228418,2.8607080530707876,-0.011901566461671072,0.0509604950521049,-0.6439172984191311
1.7881582211089295,2.8516418435715885,-0.010470624733213741,0.03970159993987221,-0.5143446067850527
1.7862391999995282,2.844804002285084,-0.008719586360801185,0.028676812925172608,-0.3796371004165205
1.784714586441711,2.840149492757668,-0.0065265492173688915,0.017868282349004345,-0.24209665604558508
1.783695788547631,2.8376320774243204,-0.0036614297234317966,0.007305870984480725,-0.10411588218030643
