x,y,v_x,v_y,omega
2.375,32.48,0.0,3.5897435897435894,-2.979591836734694
2.3743371332420806,31.84168034688439,-0.007365186199104912,3.502697000429788,-2.7807314639479457
2.3724512452196587,31.21869769049727,-0.013589125161136886,3.419332514982693,-2.6018103387359344
2.3695324851165265,30.610411193442737,-0.01884154265144211,3.339406341178794,-2.4402472253126692
2.365742907558529,30.01622195485556,-0.023264874659644254,3.2626963097898174,-2.293854399926169
2.3612209525377708,29.435569338717517,-0.026979070015447935,3.188999425077318,-2.1607697197223277
2.356085143835001,28.86792771201899,-0.030085471126434477,3.118129760461882,-2.039401693524803
2.35043715460454,28.312803535974425,-0.03266996476757652,3.0499166400332984,-1.9283848318850676
2.344364358119724,27.769732763086786,-0.0348055517303799,2.984203058718218,-1.8265431718481628
2.3379419578350604,27.238278500514756,-0.03655445143255058,2.920844303193257,-1.7328603388510961
2.331234772272083,26.718028906376254,-0.0379698326005327,2.8597067427900913,-1.6464548636159924
2.324298735565458,26.208595290654653,-0.03909724191751912,2.8006667652276978,-1.566559744340865
2.317182162903942,25.7096103965068,-0.03997578765488135,2.7436098364151196,-1.4925054546699925
2.3099268208796278,25.220726841192345,-0.040639123726389594,2.688429667078801,-1.4237057610622244
2.302568835395399,24.7416156986942,-0.04111627054281801,2.6350274717895,-1.3596458405261886
2.295139463874079,24.271965208490702,-0.04143230191629273,2.5833113082493604,-1.2998722896461616
2.2876657537549625,23.811479596957344,-0.04160892162944932,2.5331954865657162,-1.2439846946785096
2.2801711054153513,23.359877999586903,-0.041664948810672946,2.484600039772517,-1.1916284950139093
2.272675754530386,22.91689347367567,-0.04161672768894135,2.437450248130073,-1.1424889220921548
2.265197186338349,22.48227209237276,-0.04147847444480307,2.3916762107911356,-1.0962858356903458
2.257750492196373,22.05577211206396,-0.04126257157714973,2.3472124593066463,-1.0527693115086896
2.250348677102761,21.637163205989296,-0.040979818351873094,2.303997608189603,-1.0117158597952454
2.2430029254553414,21.226225757797522,-0.04063964439723761,2.261974038385677,-0.9729251756591644
2.2357228311534327,20.822750209439704,-0.040250292290635356,2.2210876100345307,-0.9362173387184431
2.2285165971885035,20.426536458413974,-0.03981897398635695,2.18128740136244,-0.9014303935949185
2.2213912090689365,20.037393299906945,-0.03935200511994173,2.142525470937862,-0.8684182541220301
2.2143525857580504,19.65513790984535,-0.03885492055657135,2.1047566408576786,-0.8370488834568897
2.2074057112478678,19.27959536528321,-0.03833257400101471,2.0679382987216512,-0.8072027099742188
2.2005547494248416,18.910598198912957,-0.03778922403260716,2.0320302165033572,-0.7787712451741168
2.1938031444921493,18.54798598480975,-0.037228608552862384,1.9969943846434195,-0.7516558751051203
2.187153708883477,18.191604952802628,-0.03665400932127352,1.9627948598801495,-0.7257668011867624
2.1806087003250005,17.841307629118603,-0.03606830799513283,1.9293976254978817,-0.7010221099714801
2.174169889466917,17.4969525011702,-0.035474034872461604,1.8967704628177418,-0.6773469544433716
2.167838619306371,17.1584037045572,-0.03487341135582971,1.8648828328822546,-0.6546728320156617
2.1616158574540942,16.82553073053211,-0.03426838700280083,1.8337057673965151,-0.6329369465450292
2.155502242152757,16.498208152338623,-0.03366067190094248,1.8032117680866697,-0.6120816434987183
2.1494981228318815,16.176315368975754,-0.03305176499767848,1.7733747137229872,-0.5920539089465482
2.1436035958788975,15.85973636506887,-0.032442978924362854,1.7441697741312971,-0.5728049243512773
2.137818536215771,15.548359485644458,-0.03183546177704421,1.7155733305843714,-0.5542896702357739
2.132142625193231,15.242077224709615,-0.031230216251179162,1.6875629020249867,-0.5364665727458465
2.126575375248131,14.940786026631034,-0.030628116472151648,1.6601170766259141,-0.5192971879296957
2.121116151712171,14.644386099393127,-0.030029922816292704,1.633215448239733,-0.502745919240583
2.1157641921107864,14.352781238891502,-0.029436294976870853,1.6068385573338844,-0.48677976435662423
2.1105186232483044,14.06587866348746,-0.028847803495151543,1.5809678360443686,-0.4713680879157367
2.1053784763384926,13.783588858112072,-0.028264939947200307,1.5555855570154895,-0.4564824171973586
2.1003427004075763,13.50582542726556,-0.027688125951871607,1.5306747857235221,-0.44209625815621645
2.09541017416897,13.232504956309587,-0.027117721143749256,1.5062193360095268,-0.42818492953603843
2.090579716544779,12.96354688049733,-0.026554030236152572,1.4822037285711165,-0.4147254130701926
2.085852936874733,12.698873781643673,-0.025965743875471098,1.4586084809139448,-0.4008524362296597
2.0812309600237353,12.43841082669758,-0.025389554468947164,1.4354243518204237,-0.3875600141043067
2.0767116171866458,12.18208523817264,-0.02482536594316029,1.412637742901134,-0.37481738529502107
2.072292759072964,11.929826635219325,-0.02427305754219199,1.3902356232468227,-0.362595725463677
2.067972260010789,11.68156693416796,-0.02373248759308588,1.3682054995460888,-0.3508680058326767
2.0637480214140482,11.437240254282699,-0.023203496815146395,1.3465353880679523,-0.339608863404387
2.0596179746902483,11.196782828402892,-0.022685911227071705,1.3252137883743327,-0.3287944818172868
2.0555800836568707,10.960132918171734,-0.02217954469934581,1.304229658638545,-0.3184024818659342
2.0516323465265076,10.727230733573226,-0.021684201193579822,1.2835723924559788,-0.30841182080990615
2.047772797513792,10.498018356518383,-0.02119967672548135,1.263231797042277,-0.29880269968413586
2.0439995081109616,10.272439668239539,-0.020725761083747837,1.2431980727226553,-0.28955647790084676
2.0403105880734236,10.050440280268376,-0.020262239333342126,1.2234617936235885,-0.28065559450268174
2.0367041861518804,9.831967468788601,-0.01980889312824492,1.2040138894850156,-0.27208349548862215
2.033178490603314,9.616970112168374,-0.01936550185582831,1.1848456285175222,-0.26382456668974175
2.029731729509373,9.40539863149067,-0.018931843632403585,1.1659486012347384,-0.2558640717214885
2.026362170927407,9.197204933911863,-0.018507696167219433,1.1473147051964676,-0.24818809458369673
2.023068122896441,8.992342358689921,-0.018092837510183847,1.1289361306028893,-0.24078348651946996
2.0198479333178105,8.790765625734046,-0.017687046696819527,1.1108053466846133,-0.23363781677995663
2.0166999897278797,8.592430786537065,-0.01729010430240905,1.0929150888374184,-0.22673932697430846
2.0136227189782305,8.397295177360817,-0.016901792915916102,1.0752583464542378,-0.22007688871315892
2.0106145868369225,8.205317374553001,-0.016521897543060115,1.0578283514103752,-0.21363996428013685
2.0076740975228304,8.016457151881571,-0.016150205946854176,1.0406185671610828,-0.20741857008954265
2.004799793183646,7.830675439779856,-0.015786508932972627,1.023622678413527,-0.20140324270963478
2.001990253326895,7.647934286402233,-0.015430600586480535,1.0068345813378374,-0.1955850072502438
1.9992440942121972,7.4681968203962334,-0.015082278465719075,0.9902483742843858,-0.18995534793086216
1.996562879895957,7.291646316244552,-0.014708991714730793,0.9714238940676322,-0.23267655721537978
1.9939451250048434,7.118475219083667,-0.014377173742083405,0.952699407719983,-0.2764574092642275
1.9913834889936433,6.948665751137593,-0.01408544860458727,0.9340724583474842,-0.3212014766374328
1.9888708801659047,6.782200568450982,-0.013832427259173682,0.9155406826148462,-0.3668134925741222
1.9864004578003338,6.619062744243237,-0.013616710136059536,0.8971018085823109,-0.41319914107963185
1.9839656338414442,6.459235752622352,-0.013436889407157317,0.8787536538719621,-0.46026484691712566
1.9815600742078656,6.302703452598898,-0.013291550965939765,0.8604941241664215,-0.5079175645605277
1.979177699769004,6.149450072339814,-0.013179276132522294,0.8423212120456297,-0.5560645651317293
1.9768126870384997,5.999460193600374,-0.013098643095302285,0.8242329961703733,-0.6046132203026835
1.9744594686310963,5.852718736270841,-0.013048228098067823,0.8062276408244284,-0.6534707820914747
1.9721127335281574,5.709210942971879,-0.013026606379033264,0.7883033958307146,-0.7025441574199628
1.969767427196127,5.56892236362965,-0.013032352865747358,0.7704585968607298,-0.7517396762282458
1.9674187516017598,5.431838839957706,-0.013064042627221651,0.752691666160859,-0.8009628518569225
1.965062165167938,5.297946489768069,-0.013120251081910077,0.7350011137239786,-0.8501181323107975
1.962693382714409,5.167231691028292,-0.013199553957299584,0.7173855389402181,-0.8991086409059306
1.9603083754288095,5.039681065574651,-0.013300526993807056,0.6998436327668952,-0.9478359046743302
1.957903370914953,4.915281462383813,-0.013421745382376324,0.6823741804646323,-0.9961995687555036
1.9554748533675967,4.794019940296078,-0.013561782921582152,0.6649760649546387,-1.0440970948397563
1.9530195639258034,4.6758837500726464,-0.013719210876121265,0.6476482708612762,-1.0914234415426993
1.9505345012606707,4.560860315656825,-0.013892596514242645,0.630389889314501,-1.1380707243819321
1.9480169224576704,4.448937214494624,-0.01408050129687101,0.6132001235988341,-1.1839278527933388
1.9454643442592272,4.340102156753282,-0.014281478685830296,0.596078295749407,-1.228880141364006
1.9428745447395697,4.234342963256786,-0.014494071532588764,0.5790238542116714,-1.272808892169812
1.9402455654914366,4.131647541934743,-0.0147168090022222,0.5620363826998979,-1.3155909447871275
1.9375757144130628,4.03200386255476,-0.014948202979710373,0.5451156104110141,-1.3570981901995811
1.9348635691941487,3.9353999294780095,-0.015186743897110439,0.5282614237751025,-1.3971970444436204
1.9321079816114697,3.8418237521425276,-0.015430895910435364,0.5114738799524852,-1.4357478774340635
1.9293080827585682,3.7512633129379758,-0.015679091344026147,0.4947532223203042,-1.4726043919897476
1.9264632893499187,3.663706532088497,-0.015929724307633997,0.47809989822943955,-1.507612947651599
1.9235733112582951,3.5791412291058045,-0.016181143377073506,0.46151457935603357,-1.5406118234704274
1.9206381604652,3.497555080311841,-0.016431643212870554,0.4449981850213265,-1.571430413570036
1.917658161628522,3.4189355718580856,-0.016679454972440957,0.42855190890927225,-1.5998883490098532
1.9146339644995445,3.3432699475856325,-0.016922735349532994,0.41217724967352953,-1.6257945393512163
1.9115665584536452,3.2705451509756145,-0.017159554049345896,0.39587604599335213,-1.6489461274788806
1.9084572894361764,3.200747760332302,-0.017387879478085923,0.37965051671011335,-1.669127351801979
1.9053078796679936,3.133863916220932,-0.01760556239061196,0.36350330674955594,-1.6861083111897393
1.9021204505050524,3.069879240049147,-0.017810317197623243,0.3474375396036279,-1.6996436302308673
1.8988975489048754,3.0087787425368155,-0.0179997005821211,0.3314568772000548,-1.7094710261487887
1.8956421780215933,2.9505467206678055,-0.01817108700990252,0.31556558801117096,-1.7153097847056682
1.8923578325335748,2.895166641567066,-0.018321640634748098,0.29976862421925976,-1.7168591617894466
1.8890485394076768,2.842621011611442,-0.018448282986339777,0.28407170862099157,-1.7137967417295406
1.8857189049283856,2.7928912289869743,-0.018547655672452295,0.26848143165088806,-1.705776805137782
1.8823741689787474,2.7459574178889525,-0.018616077101304758,0.2530053583271469,-1.692428791786496
1.879020267769264,2.70179824268779,-0.01864949189295568,0.23765214390800274,-1.6733559929870718
1.875663906497254,2.66039070075551,-0.01864341112937898,0.2224316553395533,-1.6481346808965354
1.8723126438261817,2.621709893423791,-0.0185928407714241,0.20735509279066777,-1.6163139905619388
1.868974990674855,2.5857287759710026,-0.018492194243316516,0.19243510112919615,-1.5774170308523092
1.8656605267226027,2.5524178899866463,-0.018335183003930583,0.17768585425255587,-1.5309439362160349
1.8623800394756789,2.521745085493002,-0.018114675295223197,0.16312308456572983,-1.4763779145495335
1.8591456930536978,2.493675246614874,-0.017822507171232727,0.14876401408012555,-1.4131958381235024
1.855971237639256,2.4681700444622514,-0.017449219655898077,0.13462712094900858,-1.3408856081787945
1.8528722767965706,2.4451877555389743,-0.016983678596162677,0.12073164486518043,-1.2589734246957163
1.849866620292849,2.424683204599372,-0.01641250477852003,0.10709669890819315,-1.1670651579571243
1.8469747674348924,2.4066079173988584,-0.01571919364322072,0.09373982554194212,-1.0649069721284878
1.8442205947978505,2.390910597145414,-0.014882724546133918,0.08067484394078792,-0.952470385593548
1.8416323699819972,2.3775380543999667,-0.013875328963348723,0.06790896434194695,-0.830064172813766
1.8392442927645432,2.3664366877175773,-0.012658862341697432,0.05543955435128689,-0.6984662592864312
1.8370989059468315,2.357554456316368,-0.011178768966210147,0.043251905662128956,-0.5590478533883496
1.8352510127814903,2.350842870807746,-0.009353377315357746,0.03132126665589559,-0.4138270115417063
1.8337745715609242,2.3462575929855234,-0.007051525135376739,0.01962626470212856,-0.26535130137842877
1.8327774980011298,2.3437537384729588,-0.004027069973450829,0.00819434099304759,-0.11630452827688367
