x,y,v_x,v_y,omega
2.375,32.48,0.0,2.6153846153846154,-2.0
2.3744766945342595,31.885460495806242,-0.004550482310788256,2.554524116734984,-1.8743364216503977
2.372983830802351,31.30464348659668,-0.00843094144493709,2.496058572043797,-1.7604194026821323
2.3706647004112176,30.73701527119083,-0.011735409782310368,2.4398389532244678,-1.656821798113144
2.367642608310089,30.182075001919372,-0.014543651966631418,2.3857286056577958,-1.5623212960696238
2.3640238816541457,29.63935198894548,-0.016923536345920726,2.3336019419412524,-1.4758670748735105
2.3599003827077056,29.108403285408777,-0.018932976231817777,2.283343306204002,-1.396552483741989
2.355351614992679,28.588811517273324,-0.02062152563797963,2.2348459819303717,-1.3235925558808777
2.3504464944836028,28.080182927396542,-0.022031696180073525,2.1880113213460026,-1.2563054181971514
2.34524484390936,27.58214560792446,-0.023200047943779518,2.1427479784112045,-1.1940968583085934
2.339798657315518,27.094347898886696,-0.024158096350496858,2.0989712306128347,-1.1364474615857312
2.3341531733424663,26.616456933982317,-0.02493306863256284,2.056602377251357,-1.0829018493649143
2.3283477887040362,26.148157317146218,-0.02554853691900224,2.015568203932105,-1.0330596421924403
2.3224168377411343,25.68914991566507,-0.0260249497149257,1.9758005045996176,-0.9865678449571716
2.316390259390669,25.239150757450943,-0.02638007941955661,1.9372356537840816,-0.9431144085297009
2.3102941692308283,24.797890021641212,-0.026629400231230983,1.899814222822278,-0.9024227684500006
2.3041513512669636,24.36511111302384,-0.026786408150203,1.8634806347201016,-0.8642471978854275
2.2979816816724905,23.94056981192719,-0.026862892671301004,1.8281828530768442,-0.8283688415055733
2.291802494689568,23.524033492194327,-0.02686916804976366,1.793872101121985,-0.7945923206234454
2.2856288992401947,23.11528040070902,-0.026814270640438186,1.760502607445918,-0.7627428191227559
2.27947405343255,22.714098992675424,-0.026706127686907815,1.7280313754549008,-0.7326635752550039
2.2733494030161174,22.320287317492497,-0.026551702021201117,1.6964179739618432,-0.7042137170726144
2.2672648888993283,21.93365245062214,-0.026357116385661638,1.66562434664994,-0.6772663896357544
2.2612291280604695,21.55400996733854,-0.026127760473982572,1.635614638424849,-0.6517071306407972
2.2552495715284575,21.181183454674947,-0.02586838328264024,1.606355036910742,-0.627432458124732
2.249332642562107,20.8150040582617,-0.025583172946496757,1.5778136275522787,-0.6043486396863137
2.24348385769628,20.455310061082386,-0.02527582588678163,1.5499602609634795,-0.5823706174585314
2.237707932935825,20.10194649146981,-0.024949606812827582,1.5227664313197984,-0.5614210670501847
2.2320088770511255,19.754764757924665,-0.024607400880209383,1.496205164724948,-0.5414295719936307
2.2264007844722227,19.413623010876286,-0.024158621545032545,1.470244809608791,-0.5198477836638173
2.2208961613594242,19.078385074072962,-0.023707666392347726,1.4448676843331494,-0.4993738617995718
2.2154953378131,18.74891944903745,-0.023256016619166247,1.420050794236517,-0.4799366020810732
2.2101983264818803,18.42509979145676,-0.02280495147839735,1.3957723151608141,-0.46147024120858077
2.2050048661806754,18.106804650521436,-0.02235557287990526,1.3720115190593718,-0.44391397604870514
2.1999144602007537,17.79391722472908,-0.021908826945502086,1.3487487052220004,-0.4272115308684906
2.1949264099669437,17.486325132916566,-0.021465522913714855,1.3259651366259348,-0.4113107673022379
2.1900398446122638,17.183920199393008,-0.021026349735676582,1.3036429809702006,-0.3961633323517157
2.1852537469671103,16.886598252142093,-0.02059189065696037,1.2817652559942803,-0.3817243402887307
2.1805669763969173,16.594258933149888,-0.020162636040370788,1.260315778720548,-0.36795208482252123
2.175978288867456,16.306805519993173,-0.01973899465059835,1.2392791182943566,-0.3548077783237505
2.171486354569515,16.024144757894785,-0.01932130359236726,1.2186405521264096,-0.34225531527101105
2.1670897733935104,15.74618670151725,-0.018909837068539267,1.1983860250695508,-0.3302610574123766
2.162787088508787,15.472844565824776,-0.018504814102966585,1.178502111386747,-0.31879363842016006
2.158576798271213,15.204034585397046,-0.018106405354200994,1.1589759792891523,-0.307823786067223
2.1544573666555267,14.939675881626851,-0.01771473913002888,1.139795357842997,-0.297324160172678
2.150427232385206,14.679690337277787,-0.017329906698846393,1.1209485060619202,-0.28726920475769785
2.1464848169119315,14.424002477918659,-0.016951966981802753,1.1024241840174598,-0.27763501302188764
2.142628531378621,14.172539359787933,-0.01658095069915867,1.084211625814927,-0.2683992039002793
2.1388567826841687,13.925230463675291,-0.01621686403520567,1.0663005142950104,-0.2595408090930602
2.13516797875413,13.682007594438037,-0.015859691878178893,1.0486809573333007,-0.25104016957686975
2.131560533109398,13.44280478579833,-0.015509400684707268,1.0313434656206606,-0.24287884070981627
2.128032868814237,13.20755821009299,-0.015165941012340551,1.014278931817085,-0.23503950513394453
2.124583421875596,12.976206092671266,-0.014829249758453246,0.9974786109805213,-0.22750589276016242
2.1212132426381296,12.748782297627187,-0.014476656654297254,0.9801196067940751,-0.23655304080425163
2.1179218161230056,12.525336315565845,-0.014144443477215137,0.9628889328697867,-0.24794154909470528
2.114704368213985,12.30583907128721,-0.013833364427310408,0.9457827565096626,-0.2615447699072778
2.111555970175532,12.090262353200394,-0.01354400982011071,0.9287974007669806,-0.27724014140882886
2.108471574763218,11.878578778350974,-0.013276819852180823,0.9119293370540631,-0.29490889719931807
2.1054460492930405,11.670761759086343,-0.013032097279801345,0.8951751782905444,-0.3144357874977624
2.102474205910208,11.466785471238232,-0.012810019092654933,0.8785316725625886,-0.3357088108156552
2.0995508292799174,11.266624823707865,-0.012610647257698655,0.8619956972666893,-0.35861895501012636
2.0966707019060338,11.070255429345004,-0.01243393860215867,0.8455642537147107,-0.3830599466502379
2.0938286272684223,10.877653577017142,-0.012279753898807779,0.8292344621797316,-0.4089280076635037
2.091019450955757,10.688796204769488,-0.012147866211327579,0.8130035573650684,-0.4361216182561637
2.0882380799579088,10.503660873980124,-0.012037968552569603,0.7968688842815946,-0.46454128512001847
2.085479500270418,10.322225744417803,-0.011949680903871574,0.7808278945211959,-0.49408931395075134
2.082738792952963,10.144469550112422,-0.0118825566392167,0.7648781429169034,-0.5246695853075664
2.0800111487741533,9.970371575949933,-0.011836088393908442,0.7490172845829912,-0.5561873328414999
2.0772918815662975,9.79991163490481,-0.011809713413535464,0.7332430723311275,-0.5885489229096935
2.0745764404059828,9.63307004582365,-0.011802818415287264,0.7175533544615671,-0.621661634574922
2.071860420729361,9.469827611673459,-0.011814743990117444,0.7019460729314188,-0.6554334389633459
2.069139574484855,9.310165598167242,-0.011844788570805813,0.6864192619052444,-0.6897727769182869
2.0664098194206373,9.154065712678015,-0.011892211987609952,0.6709710466967094,-0.7245883338431909
2.063667247599625,9.001510083349814,-0.011956238629888156,0.6555996431137504,-0.7597888105721309
2.0609081332308774,8.852481238310993,-0.012036060228784708,0.6403033572238322,-0.7952826890403419
2.0581289399032,8.706962084890808,-0.012130838272759504,0.6250805855603936,-0.8309779914494296
2.055326327304429,8.564935888734752,-0.012239706064379581,0.6099298157966208,-0.8667820315309289
2.0524971575083426,8.42638625270753,-0.012361770423329725,0.5948496279183322,-0.9026011564065897
2.0496385009104046,8.291297095464497,-0.012496113036999705,0.5798386959341197,-0.9383404774227648
2.0467476418936843,8.159652629562743,-0.012641791456219372,0.5648957901680998,-0.9739035881980898
2.043822084307305,8.031437338971696,-0.012797839729687642,0.55001978018883,-1.009192267966684
2.040859556841764,7.906635955829689,-0.012963268666319623,0.5352096384373233,-1.0441061681217356
2.0378580183884814,7.7852334362771956,-0.013137065710053257,0.5204644446278283,-1.0785424796648848
2.034815663475073,7.667214935179146,-0.013318194406540576,0.5057833910073958,-1.1123955790437718
2.0317309278732365,7.552565779527232,-0.013505593435517497,0.4911657885744597,-1.145556649612129
2.028602494482865,7.4412714402882685,-0.013698175176407496,0.4766110743730539,-1.1779132756730746
2.0254292996042853,7.333317502435573,-0.013894823767763234,0.4621188199981978,-1.2093490057667886
2.0222105397204553,7.228689632866754,-0.014094392613365661,0.4476887414698118,-1.2397428815398241
2.0189456789228286,7.127373545872089,-0.014295701279043258,0.43332071065769595,-1.268968928188321
2.0156344571285842,7.029354965772509,-0.014497531714383258,0.41901476846909047,-1.296895602107822
2.012276899253367,6.934619586293547,-0.014698623722292423,0.4047711400436144,-1.3233851910194547
2.008873325522844,6.843153026181113,-0.014897669586601487,0.3905902522384203,-1.3482931614940932
2.005424363128753,6.754940780494792,-0.015093307753321836,0.3764727537296069,-1.371467448491193
2.0019309594610126,6.669968166933863,-0.015284115444417767,0.36241953810454486,-1.3927476813108493
1.998394397177588,6.588220266458862,-0.015468600063624103,0.3484317703737237,-1.4119643402919102
1.9948163114086652,6.5096818573661,-0.015645189231355727,0.3345109173894169,-1.4289378387737697
1.9911987094322328,6.434337341853478,-0.01581221925936234,0.32065878272035025,-1.4434775254202674
1.9875439932052987,6.362170663982372,-0.01596792184441121,0.30687754659360444,-1.4553806031960943
1.9838549851901173,6.293165217793362,-0.016110408722383576,0.2931698115716919,-1.4644309634066126
1.9801349579796395,6.227303744175021,-0.0162376539774244,0.2795386546747461,-1.4703979367289823
1.9763876683034498,6.164568214920429,-0.016347473641614832,0.26598768666954153,-1.4730349687660258
1.9726173960881725,6.1049397022450265,-0.01643750214340632,0.252521119203525,-1.472078236362876
1.9688289893599284,6.048398231899462,-0.01650516505871587,0.2391438403231285,-1.4672452342452535
1.9650279159188524,5.994922617921215,-0.016547647472379884,0.22586149861815383,-1.4582333816934727
1.961220322899325,5.944490277077033,-0.016561857045249352,0.21268059567909237,-1.4447187292524422
1.957413105574377,5.897077021231258,-0.016544380562994628,0.19960858558850733,-1.426354890766071
1.9536139871010576,5.8526568263547105,-0.016491432248478165,0.18665397855537455,-1.402772393494949
1.9498316113889527,5.811201577854593,-0.016398791335042327,0.173826443184783,-1.3735787392426917
1.9460756519957745,5.772680793650402,-0.016261725127377235,0.1611368977212253,-1.3383596174766261
1.942356941062218,5.737061329386485,-0.01607489168615815,0.1485975741389191,-1.2966819288395
1.9386876240470032,5.704307075012789,-0.01583221279396998,0.13622202911060483,-1.248099593213417
1.9350813488425074,5.674378659612515,-0.01552670202773193,0.12402506132657064,-1.1921635665692452
1.9315535024701223,5.647233193048901,-0.015150222949530442,0.11202247400920977,-1.1284381114313853
1.9281215161992873,5.622824090188086,-0.014693135927295667,0.10023059434571308,-1.0565261704404691
1.9248052726502516,5.601101047278256,-0.014143764499101635,0.08866543095714281,-0.9761076102119792
1.9216276695879677,5.582010269893974,-0.013487566477279613,0.07734132890616668,-0.8869948320158355
1.9186154301418632,5.565495081636421,-0.012705820010586065,0.06626900376821057,-0.7892099515798573
1.9158003070474052,5.551497053293776,-0.011773511245570842,0.055452981819999275,-0.6830845460000049
1.9132209255677421,5.539957736998243,-0.010655892925412096,0.04488889901070659,-0.5693733827697064
1.910925685419191,5.530820875319048,-0.009302717061988446,0.03456207211274176,-0.4493531618819536
1.9089775302586873,5.524034414315114,-0.007637762594564559,0.02445063226929594,-0.3248455087821533
1.9074625824572884,5.519550429675174,-0.0055356965480359704,0.014540538512785884,-0.198074136801686
1.9065100989558605,5.517317406674543,-0.002746768681772097,0.004877052797052899,-0.07127374121791069
