x,y,v_x,v_y,omega
2.375,32.48,0.0,2.1025641025641026,-5.3061224489795915
2.373957845172575,32.001364126145596,-0.009062215890651952,2.0594869744306936,-5.029205196744162
2.3709598456713583,31.532470506498985,-0.01700734498949362,2.017848848583313,-4.77333309759515
2.3662480216354527,31.07299783848683,-0.023965037931423,1.9775656558702077,-4.53637801416941
2.360036474746673,30.622643324612653,-0.03004841327535567,1.9385605517313198,-4.316471638677606
2.352514917254094,30.181121110339276,-0.03535643448620542,1.9007630506458932,-4.111968620462172
2.343851698891433,29.7481609056749,-0.039975899102147744,1.8641082942617022,-3.9214156739049053
2.3341964126179118,29.323506762559443,-0.04398311197195257,1.8285364284814065,-3.743525569569909
2.3236821453132057,28.906915985236903,-0.04744529937331779,1.7939920699754766,-3.5771551370887438
2.3124274278170374,28.4981581548325,-0.05042180928901468,1.7604238465845625,-3.4212865824102945
2.3005379293151473,28.09701425257107,-0.052965134205682454,1.7277839991669859,-3.275011557557985
2.288107933508598,27.70327586865809,-0.055121785851265384,1.6960280348589318,-3.1375175273582734
2.27522162786608,27.316744485934354,-0.05693304582280432,1.6651144236083186,-3.0080760616376208
2.261954232248041,26.9372308291154,-0.05843561172536097,1.635004331339134,-2.886032748262263
2.2483729890763597,26.56455427181782,-0.05966215498491026,1.6056613842919947,-2.770798475962352
2.2345380338255,26.198542294719942,-0.060641803718219194,1.5770514600373429,-2.6618418790468894
2.2205031617916116,25.839029989152102,-0.06140056179385475,1.5491425014221456,-2.558682771094386
2.206316504745654,25.48585960120071,-0.061961673388386214,1.5219043503291059,-2.460886423198339
2.192021129108881,25.138880112070424,-0.062345940844420016,1.4953085986299106,-2.368058565673195
2.1776894954354145,24.79795462291635,-0.062276960663985796,1.469260872275061,-2.2733385271650786
2.1633861040174236,24.462951810483233,-0.06210035601419692,1.4438070619259742,-2.1835112222656683
2.1491342686268897,24.13373784405148,-0.0618286473817466,1.4189230809588427,-2.0982597906624045
2.1349545733880677,23.81018428461007,-0.0614730503471406,1.3945861315751422,-2.017291821092353
2.1208651567961736,23.492167798604356,-0.06104361566933091,1.3707746163006367,-1.9403371622177843
2.106881965362321,23.179569891179803,-0.06054935332068935,1.3474680569563455,-1.8671459564344706
2.0930189803479475,22.872276657290314,-0.059998342456471454,1.3246470203435603,-1.7974868711488796
2.0792884206261917,22.570178549203646,-0.059397829037058515,1.302293049975271,-1.7311455052894114
2.0657009243386075,22.273170159081097,-0.058754312594109674,1.28038860326429,-1.667922951594732
2.05226571169501,21.981150015436434,-0.058073623437174544,1.2589169936458344,-1.6076344976181045
2.0389907309852577,21.694020392392506,-0.05736099143023486,1.2378623371709314,-1.5501084504578744
2.0258827896285383,21.41168713075467,-0.05662110732384549,1.2172095031580512,-1.495185072019024
2.0129476718732766,21.134059470009976,-0.05585817750451728,1.1969440685349604,-1.4427156131692842
2.0001902445749415,20.861049890441144,-0.05507597291578682,1.1770522755418225,-1.3925614365096466
1.987614552316179,20.592573964616236,-0.05427787281258536,1.157520992500864,-1.3445932186618736
1.9752239029907845,20.328550217579007,-0.05346690392997475,1.1383376773880969,-1.2986902240090048
1.9630209448474467,20.06889999512292,-0.05264577557731128,1.1194903439692094,-1.2547396427294741
1.9510077358786422,19.81354733958365,-0.05181691110794428,1.1009675302852944,-1.2126359867587746
1.939185806342668,19.562418872631923,-0.0509824761613994,1.0827582692949433,-1.1722805380095433
1.927556215120822,19.31544368459076,-0.050144404028564425,1.0648520614977823,-1.1335808437942598
1.9161196005358128,19.0725532298397,-0.04930441844977703,1.0472388493810212,-1.096450254935362
1.9048762261902734,18.83368122790317,-0.04846405412012941,1.0299089935453036,-1.0608075025248749
1.8938260223247738,18.59876356985184,-0.04762467514508611,1.0128532503793,-1.0265763097176752
1.882968623141949,18.36773822967433,-0.046787491662086095,0.9960627511642494,-0.9936850353162627
1.872311422999657,18.140666515104215,-0.04588381392306194,0.9784738972715159,-0.9831900420045048
1.8618593692456646,17.917624042987043,-0.04500361002469836,0.9610258602690989,-0.9756199630029677
1.8516069541567899,17.698578934659565,-0.04414782553073432,0.9437142121437803,-0.9708197868685762
1.8415484748601663,17.483500307448967,-0.04331721183121045,0.9265347201222753,-0.9686399691470429
1.8316780761448812,17.272358230894774,-0.04251234221474694,0.9094833368706938,-0.9689360511157555
1.821989789721742,17.06512368514025,-0.04173362668211523,0.892556191429546,-0.9715682964024085
1.8124775702097229,16.861768521329246,-0.040981325596310327,0.875749580840024,-0.9764013438184754
1.803135328106651,16.662265423854123,-0.040255562256491705,0.859059962421918,-0.9833038748411089
1.7939569599824186,16.4665878743088,-0.03955633447596348,0.8424839466678715,-0.9921482942596761
1.7849363761153425,16.274710117008876,-0.038883525237739455,0.8260182907227737,-1.002810422574662
1.7760675257760634,16.086607125947342,-0.038236912495124085,0.8096598924209876,-1.0151691987977092
1.7673444203485296,15.902254573060276,-0.037616178179081985,0.7934057848578517,-1.029106392352638
1.7587611544640098,15.721628797681937,-0.037020916468915165,0.7772531314755119,-1.0445063228187936
1.750311925311629,15.544706777072886,-0.036450641377874064,0.7611992216466806,-1.061255586290324
1.741991050277587,15.371466097908023,-0.035904793700753466,0.7452414667434255,-1.0792427871481776
1.733792983054884,15.201884928614145,-0.035382747366228456,0.7293773966815867,-1.0983582740558775
1.725712328356015,15.03594199244824,-0.03488381523263254,0.7136046569349717,-1.1184938789954646
1.7177438553526283,14.87361654120875,-0.0344072543620355,0.6979210060171033,-1.1395426581563899
1.7098825099585562,14.714888329472096,-0.03395227080380917,0.6823243134320665,-1.1613986334774011
1.7021234260658535,14.559737589245916,-0.033518023915343434,0.666812558099944,-1.1839565336194202
1.6944619358375106,14.408145004928773,-0.03310363024416072,0.6513838272665216,-1.2071115331157427
1.6868935791553126,14.260091688463309,-0.03270816699234437,0.6360363159114303,-1.2307589884042638
1.679414112316888,14.115559154566014,-0.032330675080912,0.6207683266737505,-1.2547941693944407
1.6720195160723057,13.974529295911804,-0.03197016182849894,0.6055782703193964,-1.2791119851588837
1.6647060030876535,13.836984358145322,-0.03162560325543389,0.5904646667804274,-1.303606702265386
1.6574700249208685,13.702906914583242,-0.03129594602095618,0.5754261468028741,-1.3281716541793949
1.6503082785936996,13.572279840462524,-0.03098010899790316,0.5604614542468379,-1.3526989400690288
1.6432177128430911,13.445086286578714,-0.030676984485648883,0.5455694490906386,-1.3770791112345235
1.6361955341355303,13.321309652145317,-0.030385439058357756,0.5307491111997711,-1.4012008432614134
1.6292392125290256,13.200933556690217,-0.03010431404168302,0.5159995449315482,-1.4249505918622185
1.622346487469446,13.083941810787454,-0.02983242560683712,0.5013199846576982,-1.4482122302258185
1.6155153736110202,12.970318385402315,-0.029568564466431344,0.48670980130003183,-1.4708666655388274
1.6087441667549511,12.8600473796041,-0.029311495151559102,0.4721685099887803,-1.4927914321821487
1.6020314500054385,12.753112986373896,-0.029059954844204604,0.4576957789695102,-1.5138602589431998
1.5953761002490476,12.649499456203579,-0.028812651733107153,0.44329143990282655,-1.5339426074273521
1.5887772950714618,12.549191058146778,-0.028568262854594625,0.42895549972153596,-1.552903178711723
1.5822345202353474,12.452172037942045,-0.028325431372488157,0.4146881542326563,-1.5706013851764333
1.5757475778545877,12.358426572782477,-0.028082763242812555,0.40048980367663384,-1.586890784395764
1.5693165954137198,12.267938722254094,-0.027838823199517373,0.38636107048320967,-1.601618472007215
1.5629420357973334,12.18069237490693,-0.02759212998645133,0.37230281949214467,-1.614624430647327
1.556624708512863,12.09667118985762,-0.027341150748073154,0.358316180936638,-1.6257408324161164
1.5503657823120578,12.015858532750531,-0.02708429447632004,0.3444025765162931,-1.634791293001952
1.544166799442089,11.938237405326223,-0.02681990439297499,0.3305637489124583,-1.6415900767000873
1.5380296917875518,11.863790367762746,-0.02654624912473917,0.3168017951177895,-1.645941253281278
1.53195679920065,11.792499452869048,-0.026261512500493887,0.30311920395783504,-1.6476378102817024
1.5259508903601606,11.724346071124817,-0.02596378176463207,0.2895188981659181,-1.6464607281742765
1.5200151865525915,11.65931090548402,-0.0256510339533588,0.27600428131926763,-1.642178031587019
1.514153388834485,11.597373794801548,-0.02532112011713512,0.2625792898326578,-1.634543838026802
1.508369709117896,11.538513604720393,-0.024971746983636224,0.2492484500034683,-1.6232974375407199
1.5026689058289797,11.482708084897464,-0.024600455528679448,0.23601693976112553,-1.6081624539553914
1.497056324933423,11.429933711589221,-0.02420459573703144,0.22289065422357812,-1.5888461629771105
1.4915379473194539,11.38016551492397,-0.023781296558353593,0.20987627330034278,-1.5650390776178789
1.4861204438061613,11.333376890744972,-0.023327429644190434,0.19698132825614972,-1.536414961483852
1.4808112394442023,11.28953939784843,-0.022839564807627735,0.18421426214857756,-1.5026315014403404
1.4756185893644325,11.248622542951882,-0.02231391414689217,0.1715844760822707,-1.463331971195951
1.470551669313536,11.210593558080227,-0.02174626020872961,0.15910234888865588,-1.4181483570481488
1.4656206853624472,11.175417178617408,-0.021131861105084908,0.14677921165758356,-1.3667066093285962
1.4608370093496759,11.143055435526787,-0.02046532161466613,0.1346272499999882,-1.3086349415578777
1.4562133498475736,11.113467482774688,-0.019740413186222067,0.12265929567045152,-1.2435764329468133
1.4517639734714107,11.086609491378773,-0.018949816171716774,0.11088845559838015,-1.171207589804419
1.4475049992001412,11.062434655017913,-0.018084742708888102,0.09932751275691654,-1.0912649312456908
1.4434548005751129,11.04089336802219,-0.017134375769619882,0.08798802633633171,-1.0035819199139349
1.4396345694727808,11.021933651469325,-0.016085025120224153,0.07687907412336871,-0.9081382766339324
1.4360691240577652,11.005501908188677,-0.014918848053823722,0.06600565005619481,-0.8051221329001221
1.4327880882587425,10.991544063503323,-0.013611898024634334,0.055366912425141385,-0.6950012916160679
1.4298276429387196,10.980007059522855,-0.012131104758173791,0.04495486131804818,-0.5785914534109341
1.4272331854506817,10.970840457292468,-0.01042939513780694,0.034754723293996384,-0.4570959440751851
1.42506356148251,10.96399746552336,-0.008436900237601023,0.02474955295911482,-0.332076630961159
1.4233985787826495,10.95943379820157,-0.006041210195966294,0.014934510708638729,-0.2053097128043535
1.4223561897388974,10.957099823973415,-0.003023042358400483,0.0053609173622622165,-0.0784984441306287
