x,y,v_x,v_y,omega
2.375,32.48,0.0,3.128205128205128,-7.142857142857143
2.3731640591272147,31.831259214963417,-0.017485151169382037,3.0502785388099345,-6.657297746406707
2.367941556558554,31.19851499237323,-0.03225296853214979,2.975856914429932,-6.221443475217368
2.359860317913297,30.581058832811834,-0.04471120904172827,2.9046779385357397,-5.828693349575234
2.349369572025574,29.978234304258162,-0.05520065655563234,2.8365080476897067,-5.473489137143804
2.3368527254213136,29.389431462072,-0.06400740634208482,2.7711380683689857,-5.1511259284955635
2.3226378225587254,28.814082095882206,-0.07137262092066213,2.708379704867143,-4.857601647918173
2.3070061614580317,28.25165564547347,-0.07750034194308543,2.6480626799779605,-4.58949653355187
2.290199427459967,27.701655663918054,-0.08256379137181695,2.5900323824545755,-4.343875915122639
2.2724256281919377,27.16361673295529,-0.08671048737132053,2.5341479124289057,-4.118211265046773
2.253864052676709,26.637101755661057,-0.09006642229752444,2.4802804427542684,-3.9103156983844287
2.2346694315820326,26.121699566629406,-0.09273949288986826,2.4283118337376175,-3.718290981842783
2.214975440161112,25.617022811512566,-0.09482233016651982,2.378133453089433,-3.540483772006681
2.1948976578253623,25.122706056759554,-0.09639464445966495,2.3296451636059046,-3.375449300472634
2.1745360766100905,24.63840409742226,-0.09752517663816412,2.282754449130232,-3.2219211021756653
2.153977233640574,24.163790436442852,-0.09827332783342328,2.237375655435573,-3.0787856738618515
2.133296029043413,23.698555913251262,-0.09869052547287051,2.193429327341494,-2.945061174595973
2.1125572797988452,23.242407463047,-0.09882137209444254,2.150841626984776,-2.819879455552465
2.091817051205962,22.795066991010785,-0.09870461450444265,2.1095438209791757,-2.702470843978596
2.071123800485317,22.356270348034833,-0.09837396378741535,2.069471826410869,-2.5921512149365453
2.0505193612263595,21.925766396487887,-0.09785879105979743,2.0305658073695376,-2.4883109708073547
2.03003979263209,21.50331615612697,-0.09718471936181679,1.9927698151154147,-2.3904056175411945
2.009716113610482,21.088692021598355,-0.09637412846302235,1.9560314661094789,-2.2979476820421065
1.9895749385466317,20.681677044086896,-0.09544658643079165,1.9203016530472727,-2.2104997597746374
1.969639028930709,20.28206427061481,-0.09441921943513723,1.8855342847821273,-2.1276685179058807
1.9499277728108035,19.889656135290934,-0.09330702932586855,1.8516860516357476,-2.0490995087809067
1.930457602203664,19.50426389749367,-0.09212316693260457,1.8187162131001091,-1.9744726726240507
1.9112423570634864,19.12570712255585,-0.09087916773575294,1.7865864053553242,-1.9034984281239997
1.8922936031255,18.753813201023647,-0.08958515548316487,1.75526046637992,-1.8359142658341037
1.873620909863606,18.38841690299756,-0.08825001843963404,1.7247042767256906,-1.7714817727645167
1.8552320938943123,18.02935996444205,-0.08688156222030531,1.6948856142791497,-1.7099840276882392
1.8371334323937694,17.676490702680645,-0.08548664254677302,1.6657740215437422,-1.6512233159517593
1.819329850447195,17.32966365858198,-0.08407128075393479,1.6373406841578757,-1.5950191203124642
1.8018250857009352,16.988739263195924,-0.08264076444853828,1.609558319518797,-1.541206350793257
1.7846218332208057,16.653583526822317,-0.08119973536222044,1.5824010745155819,-1.4896337819716314
1.7677218730629873,16.32406774869178,-0.0797522661408102,1.5558444314895485,-1.440162670685963
1.751126182724608,16.000068245613168,-0.07830192755803927,1.5298651216400692,-1.3926655309928428
1.734835036351113,15.681466098097019,-0.07685184742762978,1.5044410451803931,-1.3470250464660072
1.7188480923290328,15.368146912602594,-0.07540476230646674,1.4795511976236673,-1.3031331026883317
1.70318574603453,15.060005128295362,-0.0737604404983206,1.455132462445195,-1.2551327556424385
1.6878658384304226,14.756938982801735,-0.0721434414455606,1.4312117803512392,-1.2093928298801564
1.6728825467550714,14.45884580839078,-0.0705545745101655,1.4077708330864125,-1.1657795089694325
1.6582298996623905,14.165626692803379,-0.06899444542012734,1.3847921725078913,-1.12416840593569
1.6439018171834987,13.877186301998808,-0.06746348295027185,1.3622591684880174,-1.0844437933494822
1.629892145426607,13.593432713449516,-0.06596196235345639,1.3401559605528655,-1.0464979046685898
1.6161946866553314,13.314277259232423,-0.06449002594440799,1.3184674129432594,-1.0102302994782082
1.6028032253065858,13.039634378227813,-0.06304770118650278,1.297179072814929,-0.9755472861095793
1.5897115504403794,12.7694214767935,-0.06163491658689137,1.2762771313213988,-0.9423613958503185
1.57691347505377,12.503558797333294,-0.060251515666530725,1.255748387347223,-0.9105909036026985
1.5644028526387914,12.241969294225367,-0.0588972692380295,1.235580213680649,-0.8801593904112188
1.5521735913183212,11.984578516618328,-0.05757188619502035,1.2157605254340154,-0.8509953437781379
1.5402196658537453,11.731314497641325,-0.05627502299141687,1.196277750537439,-0.823031792124049
1.5285351277831258,11.482107649609475,-0.055006291966862936,1.177120802146842,-0.7962059701376168
1.5171141139177793,11.23689066483782,-0.053765268655484866,1.158279052821301,-0.7704590121007564
1.5059508533981294,10.99559842170617,-0.05255149819832463,1.139742310337268,-0.745735670578471
1.495039673485956,10.758167895643808,-0.05136450096523156,1.1215007950185432,-0.7219840581311362
1.4843750042492867,10.524538074727396,-0.050203777479236676,1.1035451184711165,-0.6991554099454378
1.4739513822778123,10.294649879607697,-0.04906881272528156,1.0858662636212617,-0.6772038654921129
1.4637634535505395,10.068446087501279,-0.047959079915412754,1.0684555659636557,-0.6560862675072815
1.4538059755631512,9.845871260002035,-0.046874043774000146,1.051304695933908,-0.6357619767622683
1.444073818809982,9.626871674484661,-0.04581316339903797,1.0344056423267978,-0.6161927012368177
1.434561967704438,9.411395258888131,-0.044775894749003606,1.0177506966877925,-0.5973423384446102
1.4252655210119012,9.19939152968174,-0.04376169279896553,1.0013324386111522,-0.5791768297798431
1.4161796918605323,8.990811532829841,-0.042770013404546336,0.98514372188312,-0.5616640258609583
1.4073085259134381,8.785758185209403,-0.041717281329683276,0.9677453030734434,-0.5735605914925636
1.3986536681012216,8.58434622536522,-0.0407099359295217,0.9504638382997289,-0.5875068008044547
1.3902056706315153,8.386551439611967,-0.03974718282958604,0.9332960260169504,-0.6033834622003592
1.381955259708143,8.192350293555581,-0.03882815929776989,0.9162386983295826,-0.6210747587729915
1.373893349138673,8.001719904623837,-0.03795194136384859,0.8992888153060831,-0.6404679811550278
1.3660110525109008,7.814638015742787,-0.037117550329218346,0.8824434597515198,-0.6614532696279251
1.3582996940616103,7.631082970064995,-0.03632395871164455,0.8656998324179405,-0.6839233644082254
1.3507508183519563,7.45103368665945,-0.035570095666012526,0.849055247634871,-0.7077733630680791
1.3433561988555793,7.274469637076557,-0.034854851918530286,0.8325071293450507,-0.7329004840764001
1.3361078455580402,7.101370822704343,-0.03417708424850887,0.816053007533178,-0.7592038354695374
1.3289980116593318,6.931717752834359,-0.03353561954871444,0.7996905150380879,-0.7865841876756934
1.3220191994650228,6.76549142335751,-0.03292925849232473,0.7834173847414415,-0.8149437495255745
1.3151641655459996,6.602673296011144,-0.03235677883170614,0.7672314471287031,-0.8441859464828954
1.3084259252417594,6.443245278099429,-0.03181693835153439,0.7511306282209507,-0.8742152001222365
1.3017977565777483,6.287189702608941,-0.031308477496189535,0.7351129478789458,-0.9049367078682097
1.29527320366332,6.134489308640841,-0.03083012168884182,0.7191765184839076,-0.9362562219886457
1.288846079633487,5.985127222079754,-0.03038058335718769,0.7033195440026537,-0.9680798268052578
1.2825104691947533,5.839086936417413,-0.029958563678371648,0.6875403194482111,-1.0003137130475424
1.2762607308329366,5.696352293646523,-0.02956275405321687,0.6718372307507364,-1.0328639482290793
1.2700914987390153,5.556907465136643,-0.029191837317461514,0.6562087550576576,-1.0656362418693521
1.2639976845076824,5.420736932399514,-0.028844488695233244,0.6406534614864401,-1.0985357043180892
1.2579744786624492,5.28782546764581,-0.028519376497464596,0.6251700123583469,-1.131466597862301
1.252017352060856,5.158158114028737,-0.028215162565328238,0.6097571649471064,-1.1643320787079223
1.2461220572336142,5.031720165462119,-0.02793050245602225,0.5944137737826057,-1.1970339283275686
1.2402846297123724,4.908497145891491,-0.027664045365328183,0.5791387935567082,-1.2294722725526808
1.2345013894022956,4.788474787885988,-0.02741443377826092,0.5639312826861729,-1.2615452866616501
1.2287689420578203,4.671639010406299,-0.027180302835788983,0.5487904075965738,-1.293148884574934
1.2230841809228545,4.557975895589529,-0.02696027940198063,0.533715447801229,-1.324176390113511
1.2174442886003893,4.447471664375033,-0.026752980811973807,0.5187058018606406,-1.3545181881085462
1.2118467392210661,4.340112650775961,-0.02655701327681911,0.5037609943210016,-1.3840613529687695
1.206289300985774,4.235885274579012,-0.02637096991643805,0.48888068374516236,-1.4126892521197922
1.200770039163955,4.13477601222931,-0.02619342838659891,0.47406467196629115,-1.4402811215297904
1.195287319637078,4.036771365627928,-0.02602294805985094,0.45931291471354313,-1.4667116103342999
1.189839813085858,3.941857828536044,-0.025858066713671114,0.4446255337805922,-1.491850291377944
1.1844264999304108,3.8500218502412125,-0.025697296671541744,0.4300028309320814,-1.5155611343158681
1.1790466761448142,3.7612497960974913,-0.025539120334140103,0.41544530377003797,-1.537701937781874
1.1736999600817797,3.6755279045013687,-0.025381985028092417,0.40095366381209624,-1.5581237170620628
1.168386300459529,3.5928422398091904,-0.025224297088580133,0.3865288570657853,-1.576670043753242
1.163105985681916,3.5131786406384293,-0.025064415079163137,0.372172087417644,-1.5931763340934546
1.157859654684712,3.436522662924471,-0.02490064203706411,0.3578848431914727,-1.6074690831123777
1.1526483095263265,3.362859517026571,-0.024731216614226875,0.34366892726473114,-1.6193650425829846
1.1474733299707345,3.2921739980916804,-0.024554302962840616,0.3295264911627863,-1.6286703421355513
1.142336490344957,3.224450408794496,-0.024367979187420313,0.3154600735722872,-1.6351795550674604
1.1372399789943157,3.1596724734788744,-0.0241702241520215,0.30147264371933274,-1.6386747136995288
1.1321864207076338,3.0978232426349024,-0.023958902387806055,0.28756765003277823,-1.6389242840950842
1.1271789025441288,3.0388849865653853,-0.023731746788432675,0.2737490744388007,-1.6356821172915939
1.1222210035676807,2.9828390770388538,-0.023486338701548027,0.2600214924805341,-1.6286864049265721
1.1173168290881679,2.9296658557142656,-0.023220084912860428,0.24639013918220515,-1.6176586827446406
1.1124710501323116,2.879344488188071,-0.022930190857200015,0.23286098011487785,-1.6023029480608393
1.1076889490315192,2.831852802706866,-0.022613629150347904,0.21944078637279182,-1.5823049898379644
1.1029764722427915,2.7871671129836315,-0.022267102170868233,0.2061372109913456,-1.5573320768902945
1.0983402918445992,2.7452620252648536,-0.021886996859534734,0.19295886252083524,-1.527033216875088
1.093787877626517,2.7061102309849794,-0.021469329026962365,0.17991536871605032,-1.49104029452669
1.0893275824056516,2.6696822882539273,-0.021009673076518808,0.1670174191987366,-1.4489705332995395
1.084968744293281,2.6359463983926084,-0.020503070850821776,0.15427676995666642,-1.4004309147325125
1.0807218113249129,2.6048681882256375,-0.019943909800302886,0.1417061840144834,-1.3450254514765534
1.0765984965143265,2.5764105154558763,-0.01932575506242458,0.12931927093563755,-1.2823665591033229
1.07261197556796,2.5505333238613943,-0.018641111093447484,0.11713017282134217,-1.2120922133894911
1.0687771461000968,2.5271935878337928,-0.017881074314773336,0.10515302744153082,-1.1338910824727593
1.0651109776178083,2.5063454018248166,-0.017034815992736076,0.09340112502491117,-1.0475382651179956
1.0616329979259327,2.4879402875948458,-0.016088800120364368,0.08188567716528092,-0.9529443268100815
1.058365987163261,2.471927804328292,-0.015025588095556309,0.07061416346856914,-0.8502193015998212
1.0553369905586736,2.4582565382409953,-0.013821998614799307,0.05958837069615299,-0.7397499039159589
1.052578824990241,2.446875487911001,-0.012446244894082935,0.048802584827607104,-0.62228040798474
1.050132368062251,2.437735694122882,-0.010853344896297879,0.03824307029733062,-0.49897380541237113
1.04805016861243,2.4307915995502505,-0.008977126054378524,0.027891163727716342,-0.371411590091158
1.0464026553625874,2.426000876571944,-0.006713476325073596,0.01773476939901865,-0.24147749952735809
1.0452912306702318,2.4233194344661833,-0.0038715207449800657,0.007802774465358962,-0.11107997770804873
