x,y,v_x,v_y,omega
2.375,32.48,0.0,2.358974358974359,-4.571428571428571
2.3742299857992997,32.01288594970211,-0.007700142007005455,2.312166144004524,-4.3391273097849155
2.3720127232234476,31.554984478411626,-0.014472483751512256,2.266848568900304,-4.123996957184035
2.3685232827708678,31.106005531491054,-0.020421920774285847,2.222940900305432,-3.9243544794179304
2.3639170486743804,30.665674578025477,-0.025640420190589347,2.1803686343503204,-3.738714889161609
2.358332127028743,30.233731430950005,-0.030208796265785577,2.139062836404388,-3.565764374107839
2.3518914260641446,29.80992919011386,-0.03419821338019781,2.0989595719570677,-3.404337552446186
2.3447044584051144,29.39403329159503,-0.0376714632101032,2.0599994132312327,-3.253398145616419
2.336868906688201,28.98582064935742,-0.040684053959031796,2.0221270091448345,-3.112022494097695
2.328471987051822,28.58507887758369,-0.043285142404759024,1.985290708592494,-2.979385449127863
2.319591639418613,28.191605583837045,-0.04551833392732763,1.9494422288739446,-2.854748258329677
2.3102975689044034,27.805207724693002,-0.047422371214771934,1.9145363625664922,-2.7374481312260635
2.3006521589075803,27.425701016705233,-0.04903172875345742,1.8805307173112107,-2.6268892253083913
2.2907112733013997,27.052909396581775,-0.05037712730834745,1.8473854839233796,-2.5225348375362153
2.2805249625465964,26.68666452528974,-0.051485980239688145,1.815063228996966,-2.4239006220848234
2.2701380863651437,26.326805331511117,-0.05238278157483727,1.7835287087892657,-2.330548684510434
2.2595908637905886,25.9731775904647,-0.053089444170715,1.7527487016748604,-2.242082426588455
2.248919359873907,25.62563353461013,-0.053625594996097585,1.7226918568708456,-2.1581420359285524
2.2381559170262317,25.284031493175465,-0.05400883348065653,1.693328557475818,-2.078400530893224
2.2273295378804354,24.948235557813142,-0.05425495797730753,1.664630796147441,-2.0025602849874002
2.216466225619435,24.61811527200053,-0.054378164632694674,1.6365720619786637,-1.9303499662576216
2.2055892869230873,24.293545342069702,-0.054391222330782515,1.6091272373296104,-1.8615218367508155
2.194719602005502,23.97440536798296,-0.05430562684507409,1.582272503537817,-1.7958493650646403
2.18387586563214,23.660579592172233,-0.054131736888540755,1.5559852545694444,-1.7331251117404647
2.1730748025060036,23.351956664936004,-0.053878894372828265,1.5302440177928536,-1.6731588529228385
2.162331359981903,23.048429425041007,-0.0535555308681765,1.5050283811571141,-1.6157759125121798
2.1516588806967527,22.749894694310832,-0.053169261983324084,1.480318926144595,-1.560815677114731
2.1410796313732536,22.456256706104263,-0.05262323125166662,1.456060955921121,-1.5048604357234583
2.130612971226793,22.167423113522602,-0.052043370212943786,1.432274969895509,-1.451459622678036
2.1202652050903104,21.883301209309028,-0.05143429115187917,1.4089440722402224,-1.4004663530657357
2.110041762114547,21.603801587458605,-0.05080013860575509,1.3860521462640094,-1.3517437902979892
2.0999472846298386,21.328837991952625,-0.050144636241329074,1.363583808795782,-1.3051643490451195
2.0899857081252717,21.0583271742941,-0.04947112880433739,1.3415243677895128,-1.2606089699081087
2.0801603332754874,20.79218875922702,-0.04878261969350605,1.3198597828812695,-1.2179664586123038
2.070473890841655,20.530345118073335,-0.048081804644819696,1.2985766286555673,-1.1771328833094814
2.0609286001817604,20.272721249167642,-0.04737110195412549,1.2776620604013884,-1.1380110242787322
2.0515262220247674,20.019244664911618,-0.04665267961580442,1.2571037821588524,-1.1005098709360968
2.042268106092064,19.769845285008138,-0.04592847971123021,1.2368900168759431,-1.0645441616088032
2.0331552340867205,19.524455335469426,-0.045200240342204975,1.2170094785111665,-1.0300339620118275
2.024188258515422,19.283009253025035,-0.04446951537078093,1.1974513459327711,-0.9969042787904749
2.0153675377586215,19.045443594583915,-0.04373769219722466,1.1782052384784032,-0.9650847048697982
2.0066931677607176,18.81169695143098,-0.04300600778181544,1.1592611930509695,-0.9345090936860307
1.9981650106732127,18.581709867862163,-0.04227556309322972,1.1406096426371999,-0.9051152596720567
1.9897827207492849,18.355424763983937,-0.04154733614605078,1.1222413961450617,-0.8768447026328541
1.9815457677574688,18.132785862422942,-0.04082219377210999,1.1041476194649085,-0.849642353881783
1.973453458154796,17.913739118709735,-0.040100902254616246,1.086319817667132,-0.8234563422180119
1.9655049542353242,17.6982321551174,-0.03938413694010391,1.0687498182562436,-0.7982377780122735
1.9576992914482236,17.486214197750996,-0.038672490930902165,1.0514297554077823,-0.7739405538351608
1.9500353940601427,17.27763601669818,-0.03796648294990547,1.0343520551203444,-0.7505211602115941
1.9425120893191787,17.072449869064112,-0.03726656445973536,1.0175094212203737,-0.7279385152189282
1.935128120262227,16.87060944472585,-0.036573126109780245,1.000894822162226,-0.7061538067661909
1.9278821572935538,16.672069814652584,-0.03588650357695312,0.9845014785704657,-0.6851303464996867
1.9207780924967466,16.476976497818693,-0.035154144391118886,0.9664316897684415,-0.7023691905656643
1.91381695954728,16.285485629642746,-0.0344571851035477,0.9484769919910412,-0.7214420275010782
1.9069917343577256,16.097574506236445,-0.03379506679199489,0.9306342420719936,-0.742231547368523
1.90029551224365,15.913221039617412,-0.03316715434876246,0.912900424118335,-0.7646231951676276
1.8937215224516772,15.732403732725363,-0.032572743570964686,0.8952726448021643,-0.7885049144286885
1.887263141329092,15.555101655336543,-0.032011067654888016,0.8777481290860318,-0.8137668970361743
1.880913904250055,15.381294420791022,-0.031481303135481496,0.8603242163691756,-0.8403013382469748
1.874667516405673,15.21096216344964,-0.030982575308338173,0.8429983570446301,-0.8680021958816126
1.8685178625580336,15.044085516799171,-0.030513963168055654,0.8257681094600666,-0.8967649526726073
1.8624590158518712,14.880645592125354,-0.030074503893568548,0.8086311372780941,-0.9264863807527186
1.8564852457717245,14.720623957674071,-0.029663196907899127,0.7915852072347203,-0.9570643072567253
1.8505910253272595,14.564002618220826,-0.029279007536750307,0.7746281872977473,-0.9883973799934967
1.8447710375448403,14.41076399496804,-0.028920870287440382,0.757758045230129,-1.0203848321200817
1.8390201813394138,14.260890905688349,-0.028587691766826982,0.7409728475667661,-1.0529262447159775
1.8333335768373247,14.11436654502998,-0.02827835325406206,0.7242707590169283,-1.085921306113205
1.8277065702177953,13.971174464897437,-0.027991712941234294,0.707650042308521,-1.119269566785759
1.8221347381384554,13.831298554817103,-0.02772660785216245,0.6911090584948149,-1.1528701885398216
1.816613891808562,13.694723022192711,-0.0274818554467744,0.6746462677491105,-1.186621686673135
1.8111400807723232,13.56143237234998,-0.027256254915611466,0.6582602306781962,-1.2204216636874239
1.8057095964641618,13.431411388263015,-0.027048588166003678,0.6419496101914588,-1.2541665330409288
1.8003189755977278,13.304645109846945,-0.026857620498334036,0.6257131739692453,-1.2877512313182176
1.7949650034511435,13.181118812691857,-0.026682100967510076,0.6095497975816496,-1.32106891707071
1.7896447171122678,13.060817986101945,-0.026520762421247922,0.5934584683174644,-1.3540106544431434
1.7843554087498428,12.943728310290926,-0.026372321203000842,0.5774382897927327,-1.3864650795480382
1.7790946289792147,12.829835632569718,-0.026235476503279963,0.5614884874193417,-1.4183180473819492
1.7738601903950206,12.719125942345123,-0.02610890933866171,0.5456084148266033,-1.4494522568942592
1.7686501713478653,12.611585344728162,-0.025991281132889458,0.5297975613429863,-1.4797468516225882
1.7634629200476684,12.50720003252773,-0.02588123186908208,0.5140555606613189,-1.5090769931008374
1.7582970590831526,12.405956256378687,-0.02577737777607419,0.4983822008291309,-1.5373134040303893
1.7531514904550218,12.307840292723114,-0.02567830850523317,0.4827774357265834,-1.5643218779884343
1.7480254012298375,12.212838409328665,-0.025582583746609693,0.4672413982178931,-1.5899627522396687
1.7429182699326924,12.120936827988025,-0.025488729224841605,0.45177441518849715,-1.614090340033586
1.7378298738096407,12.03212168399822,-0.0253952320056743,0.4363770247095538,-1.6365523186312791
1.7327602971057665,11.946378981966891,-0.025300535033069685,0.42104999560373,-1.6571890692452198
1.727709940522022,11.863694547434385,-0.025203030804374263,0.4057943497213372,-1.6758329651394097
1.7226795320339305,11.784053973734938,-0.025101054076539706,0.39061138727312306,-1.6923076043925689
1.7176701392783327,11.70744256344721,-0.024992873479438828,0.3755027156041597,-1.706426984369643
1.7126831837411687,11.633845263703783,-0.0248766818921999,0.3604702818301011,-1.717994615914228
1.7077204570105295,11.56324659454188,-0.024750585414191256,0.34551640978894627,-1.7268025768627986
1.7027841393958751,11.49563056938474,-0.02461259073235431,0.3306438417824432,-1.7326305069712864
1.69787682125776,11.430980606648287,-0.024460590648797294,0.3158557855820988,-1.735244550136401
1.6930015274445247,11.369279431375976,-0.024292347483556,0.3011559671410143,-1.7343962554613084
1.6881617452959699,11.310508965725639,-0.024105474001990014,0.2865486893623533,-1.7298214570785033
1.6833614567531447,11.25465020707994,-0.02389741142626244,0.27203889709461904,-1.721239164877387
1.6786051752142312,11.20168309255023,-0.023665403962873425,0.25763224820248776,-1.7083505160741552
1.6738979879086644,11.15158634872758,-0.0234064690927937,0.24333519002400442,-1.6908378633175338
1.6692456047399298,11.104337325759374,-0.023117362594552743,0.22915503965806922,-1.6683641121866932
1.664654414795391,11.059911815277065,-0.02279453685083624,0.21510006516503982,-1.6405724743936199
1.6601315520762734,11.018283852493731,-0.022434090340339285,0.20117956266830428,-1.607086879622621
1.6556849725221927,10.979425504109344,-0.02203170520046696,0.18740392117555196,-1.5675133982252147
1.6513235451882684,10.943306645769017,-0.02158256813877607,0.1737846622277251,-1.5214431816964278
1.6470571616334704,10.909894736083778,-0.021081267409204976,0.16033443462464553,-1.4684576442360764
1.6428968694455688,10.879154599144883,-0.020521654469809636,0.14706693476429258,-1.4081369053691346
1.6388550387613185,10.851048234673524,-0.019896652372693797,0.13399670994928062,-1.3400729068699955
1.6349455752793611,10.825534685143232,-0.019197982446879012,0.12113878535364486,-1.2638891079863313
1.6311842006160946,10.80257000289932,-0.018415764185786238,0.10850803708549446,-1.1792692052959821
1.6275888324874666,10.782107377144452,-0.017537917100494717,0.09611822046316465,-1.0859977572316668
1.6241801155068978,10.764097498008237,-0.016549252705192297,0.08398057089899386,-0.9840155130654296
1.6209821820398504,10.748489244833383,-0.015430081965282436,0.07210196084953793,-0.8734907867728651
1.6180237675704885,10.735230769872302,-0.014154062728337954,0.060482788761277696,-0.7549038112138629
1.615339878604582,10.724270970413194,-0.012684826930725498,0.049115205829815996,-0.6291314634751056
1.6129743470068219,10.715561139311582,-0.010970489046876886,0.03798310518629948,-0.4975035874037774
1.6109839222831757,10.709056152973389,-0.008933758189586478,0.02706675819561455,-0.36178245692540356
1.6094455540074522,10.704713644533715,-0.006449924567647369,0.016358326201133557,-0.22400613317892917
1.608472982904905,10.702486773104354,-0.0032757864578257584,0.005910388092485026,-0.08615505734732792
