x,y,v_x,v_y,omega
2.375,32.48,0.0,3.7948717948717947,-4.326530612244898
2.373735861391706,31.73151812029973,-0.012641386082940907,3.6899470021308978,-3.9910605654431426
2.3701678009562928,31.003497347964398,-0.02303921827118935,3.59026072122239,-3.6949826825164096
2.3647061098113564,30.294930770922377,-0.031577693178174264,3.4954050491978164,-3.4323757323960313
2.3576913457443753,29.60488873332756,-0.038569947491637474,3.4050153267503704,-3.1983624279781413
2.3494071078818246,28.932510784835532,-0.044272431133869,3.318764158169915,-2.9889013895121836
2.3400902539599437,28.27699872101834,-0.04889610808493908,3.2363564800019757,-2.8006250532525474
2.3299391185731086,27.63761052776669,-0.05261524578341483,3.157525452514557,-2.6307124158914377
2.319120158359183,27.013655081961574,-0.055574356355839634,3.0820290055366106,-2.476788422294065
2.3077733516506242,26.404487490298326,-0.05789371072974841,3.0096469110958415,-2.33684389430383
2.296016606259808,25.80950497070634,-0.059673743178415714,2.94017828482404,-2.2091714136089813
2.2839493731711564,25.2281431982453,-0.06099858770809747,2.8734394397863596,-2.092313681605853
2.271655621283933,24.659873051011793,-0.06193893116413742,2.8092620325486837,-1.9850217000537431
2.2592062956080214,24.104197702406807,-0.06255432559498,2.747491453501163,-1.8862207287236556
2.246661356002473,23.5606500147774,-0.06289507046050449,2.687985422792906,-1.794982436841654
2.2340714738581005,23.028790196451894,-0.063003750983217,2.630612760462193,-1.7105020141588725
2.221479448724105,22.508203689905,-0.06291650035673962,2.5752523050067597,-1.6320792738269512
2.20892139476658,21.998499263492718,-0.06266403921851055,2.521791959116036,-1.5591029838458321
2.196427737373236,21.499307283094844,-0.062272534714926796,2.4701278448627066,-1.4910378219741254
2.184024052615536,21.010278143255448,-0.06176431286207645,2.4201635535312795,-1.4274134719183154
2.171731776213739,20.531080840142277,-0.06115845115589558,2.3718094776004186,-1.3678154747101152
2.1595688037903042,20.06140167095129,-0.06047127307844867,2.3249822143094274,-1.311877524693957
2.1475500002869956,19.6009430463388,-0.05971676195464035,2.2796040318155097,-1.259274959184158
2.1356876332628016,19.149422404131755,-0.0589069082872993,2.2356023902549462,-1.2097192381765693
2.123991742229247,18.706571213995204,-0.058052002048242624,2.192909511110525,-1.1629532482262934
2.1124704540961488,18.27213406396411,-0.057160879282741245,2.15146198920044,-1.118747294810058
2.101130253099657,17.845867820806788,-0.05624113068217668,2.1112004423727617,-1.0768956717797056
2.0899762121907086,17.427540857105498,-0.05529927840730639,2.0720691946401426,-1.0372137161209247
2.0790121917165343,17.016932338737263,-0.054340926334439814,2.0340159890422322,-0.999535272122325
2.0682410102835127,16.613831567133555,-0.05337088799577378,1.9969917269948416,-0.9637105019870815
2.0576645919087997,16.2180373713052,-0.05239329575135702,1.960950231288696,-0.9296039904735404
2.047284092920595,15.829357545151577,-0.05141169413069043,1.9258480302475394,-0.8970930997980898
2.037100011528453,15.447608326041383,-0.05042911979073102,1.8916441608544188,-0.8660665381418865
2.027112282536048,15.072613911064586,-0.049448170133317204,1.8582999889135414,-0.8364231109655611
2.0173203592934925,14.7042060077193,-0.048471062292238,1.8257790445393274,-0.8080706291864557
2.0077232846717594,14.342223416119445,-0.04749968392509525,1.7940468714592297,-0.7809249522982975
1.9983197525775362,13.986511640094836,-0.04653563701713517,1.7630708887868596,-0.7549091478637886
1.989108161304343,13.636922524809101,-0.045580275714794616,1.7328202640704742,-0.7299527516075374
1.9800866598279732,13.293313918746854,-0.044634739048907,1.7032657965519897,-0.7059911146781104
1.9712531879955084,12.955549358123065,-0.043699979275739265,1.6743798096859008,-0.6829648266132808
1.9626055114225613,12.623497771947676,-0.04277678645373108,1.6461360520679773,-0.6608192041965556
1.9541412517990613,12.297033206139659,-0.041865809781270295,1.618509606012197,-0.6395038377886727
1.9458579132066314,11.976034565229178,-0.0409675761430296,1.5914768030926325,-0.6189721878982829
1.9377529049676459,11.660385370316288,-0.040082506246823885,1.5650151460362622,-0.5991812257570458
1.9298235614752053,11.349973532071253,-0.03921092867758312,1.5391032364140818,-0.5800911125151998
1.9220671593926282,11.044691137666604,-0.03835309214818908,1.5137207076324255,-0.5616649123984976
1.9144809325590884,10.744434250625869,-0.037509176187207525,1.4888481627749277,-0.543868335786296
1.9070703294495024,10.449103608824448,-0.036596854908651714,1.464458255239264,-0.5243687419345788
1.8998399279194418,10.158603504283224,-0.035707160391954866,1.440542790172974,-0.5057561601837367
1.8927852421928268,9.872840734512756,-0.03483969687419434,1.417084907531722,-0.48797978050697477
1.8859018683909317,9.591725392465317,-0.033994041144757486,1.3940685129426533,-0.4709922550590262
1.879185489429671,9.315170717765135,-0.03316974846784988,1.3714782340591913,-0.4547494248047954
1.8726318788150484,9.04309295637223,-0.032366357678375875,1.3492993798698616,-0.43921007060939404
1.8662369034912298,8.775411228112304,-0.03158339555980863,1.327517902729392,-0.42433568634877283
1.8599965258754292,8.512047401549268,-0.030820380598197583,1.3061203629009652,-0.4100902718682887
1.8539068051962102,8.252925975717464,-0.030076826193991792,1.2850938954170779,-0.39644014385258625
1.847963898236551,7.997973968267434,-0.029352243402599835,1.2644261790832048,-0.38335376287825895
1.8421640595697597,7.747120809612756,-0.028646143265314096,1.2441054074635929,-0.37080157510447853
1.8365036413648093,7.500298242696179,-0.02795803878419188,1.2241202617021703,-0.358755867219211
1.8309790928276368,7.257440228021569,-0.02728744658752976,1.204459885043928,-0.34719063340245143
1.82558695933623,7.018482853623841,-0.026633888326540008,1.1851138589333348,-0.3360814531954112
1.8203238813197151,6.783364249672857,-0.025996891838609672,1.166072180576504,-0.32540537927777813
1.8151865929250557,6.5520245074289,-0.025375992107983702,1.1473252418630697,-0.3151408342557862
1.8101719205091804,6.324405602287381,-0.024770732050768948,1.128863809552104,-0.30526751565337884
1.805276780989331,6.100451320668768,-0.024180663147725164,1.110679006634046,-0.29576630837855367
1.8004981800800262,5.880107190526605,-0.023605345945322823,1.0927622947875661,-0.28661920400817725
1.7958332104411991,5.663320415262188,-0.023044350442946126,1.0751054578566208,-0.2778092262981605
1.7912790497587197,5.450039810848651,-0.022497256381851544,1.0577005862787412,-0.26932036238277174
1.786832958775583,5.240215745980688,-0.021963653449513856,1.0405400624008827,-0.2611374991777914
1.7824922792895053,5.033800085078202,-0.021443141411264254,1.0236165466239913,-0.25324636454786753
1.7782544321304172,4.830746133983617,-0.0209353301796165,1.0069229643218653,-0.24563347283939635
1.7741169151294196,4.631008588203034,-0.02043983983035836,0.9904524934839425,-0.23828607441705132
1.7700815383673756,4.434717113949013,-0.019913927790081564,0.972462249056276,-0.2657497285879389
1.766147529076434,4.24201268954695,-0.01942616511933365,0.954581994964347,-0.2948158785129543
1.7623073373418263,4.052873611562578,-0.01897575222674201,0.9368087848793616,-0.3253785250426861
1.758553578682943,3.867278754515141,-0.0185618343620938,0.9191397855950065,-0.3573340174442534
1.7548790445066242,3.685207548661925,-0.01818350740109194,0.9015722729371517,-0.3905808243383123
1.7512767114546264,3.506639958563323,-0.017839823118886163,0.8841036280488817,-0.4250193094466167
1.7477397497439604,3.3315564623543636,-0.017529793987774177,0.8667313340407169,-0.46055151122709137
1.7442615305920688,3.1599380316504586,-0.01725239753114047,0.8494529729983376,-0.49708092547758426
1.7408356328127004,2.9917661120163643,-0.017006580262543713,0.8322662233426099,-0.5345122899868453
1.7374558486628608,2.827022603928178,-0.016791261235851975,0.8151688575392663,-0.5727513703016182
1.7341161890163324,2.665689844158429,-0.016605335229432815,0.7981587401582368,-0.6117047456617561
1.7308108879349282,2.5077505875140638,-0.016447675584607264,0.7812338262854108,-0.6512795941306129
1.7275344067048828,2.3531879888562663,-0.016317136715847762,0.7643921602925554,-0.6913834759151638
1.7242814374025466,2.201985585329581,-0.01621255630751421,0.7476318749742876,-0.7319241138288384
1.7210469060508697,2.0541272787257085,-0.01613275720925309,0.730951191064426,-0.7728091697992369
1.7178259754259941,1.9095973179044847,-0.016076549039504506,0.7143484171478012,-0.8139460162620227
1.7146140475716596,1.7683802811909288,-0.016042729503841828,0.6978219499877454,-0.8552415012104557
1.7114067660780674,1.6304610586627462,-0.01603008543207733,0.6813702752940749,-0.8966017055862832
1.7082000181813426,1.4958248342371867,-0.01603739353517144,0.6649919689615252,-0.9379316916009404
1.704989936739831,1.3644570674595968,-0.016063420879946624,0.6486856988143777,-0.979135240465012
1.7017729021441972,1.236343474888205,-0.016106925076389805,0.6324502268995543,-1.0201145778773366
1.6985455442196695,1.1114700109604598,-0.016166654168885346,0.616284412377879,-1.0607700854815834
1.6953047441808806,0.9898228482155069,-0.01624134621900583,0.6001872150716564,-1.100999996336077
1.6920476367026354,0.8713883567347018,-0.016329728563445094,0.5841576997363868,-1.1407000722605931
1.6887716121736662,0.7561530826475114,-0.016430516726246545,0.5681950411355102,-1.179763260720285
1.6854743192050825,0.6441037255329825,-0.016542412959590802,0.5522985300097917,-1.2180793286805482
1.6821536674709252,0.5352271145272454,-0.01666410438198224,0.5364675800475833,-1.255534470616474
1.6788078309650645,0.4295101829245809,-0.01679426067662553,0.5207017359790372,-1.2920108875861838
1.675435251766801,0.32693994103300383,-0.016931531306010078,0.5050006829367274,-1.3273863339793408
1.6720346444170893,0.22750344701458403,-0.01707454219110603,0.48936425724745475,-1.3615336282325219
1.6686050010184799,0.13118777540527304,-0.01722189179498672,0.47379245884566873,-1.3943201234662481
1.665145597184884,0.037979982967868864,-0.017372146540973136,0.45828546552837907,-1.4256071336520528
1.6616559989823503,-0.05213292851547635,-0.017523835484362243,0.4428436493050988,-1.4552493105748134
1.6581360710194908,-0.1391640529594511,-0.0176754441442338,0.4274675951346657,-1.4830939665359348
1.6545859858663212,-0.22312662471132683,-0.01782540738746229,0.4121581223840621,-1.5089803374779374
1.651006235003519,-0.3040340678890061,-0.017972101240559087,0.3969163093927259,-1.5327387810475084
1.6473976415308722,-0.3819000509861894,-0.0181138334859095,0.38174352157911545,-1.5541899041220468
1.6437613748946025,-0.4567385475024679,-0.01824883287678688,0.3666414435836485,-1.573143614607564
1.6400989679289786,-0.5285639034610128,-0.018375236779453897,0.3516121160017999,-1.5893980930255707
1.6364123365490717,-0.5973909127931663,-0.01849107701961358,0.3366579773197304,-1.6027386807662463
1.6327038024798237,-0.6632349016967822,-0.018594263672866634,0.32178191171641235,-1.6129366842211965
1.6289761194633083,-0.726111823211518,-0.018682566492288596,0.30698730343092645,-1.6197480977992162
1.6252325034533697,-0.786038363394141,-0.018753593607099196,0.2922780983952977,-1.6229122547721855
1.6214766673877694,-0.8430320606112858,-0.018804767048901355,0.2776588737761672,-1.6221504240206572
1.6177128612271876,-0.8971114395801152,-0.018833294556917658,0.26313491591211985,-1.6171643845537669
1.613945918074882,-0.9482961618527384,-0.018836136966136608,0.24871230681414497,-1.6076350303740752
1.610181307351482,-0.9966071944157733,-0.01880997026786656,0.23439801881620248,-1.5932210890879122
1.6064251962136464,-1.0420669978944161,-0.018751141110487545,0.22020001597020838,-1.5735580833830447
1.6026845207014055,-1.0846997354059482,-0.018655614011923383,0.20612735914513883,-1.548257732062751
1.5989670685230255,-1.1245315022372608,-0.018518907771877365,0.19219030916798027,-1.5169080868328102
1.5952815760146621,-1.1615905749765716,-0.018336017311756637,0.17840041822514793,-1.4790748469404553
1.591637842772064,-1.195907676138674,-0.018101315114221625,0.1647705933958511,-1.4343045062650654
1.5880468689561855,-1.227516246139892,-0.017808423044563704,0.1513151066162942,-1.3821302935672808
1.5845210226807773,-1.2564527079352104,-0.01745003970951794,0.1380495113368959,-1.3220822993824075
1.5810742487956997,-1.28275669970931,-0.017017699141259467,0.1249904064040944,-1.2537037752793252
1.5777223367802211,-1.3064712365391884,-0.016501421013525294,0.11215496189469733,-1.1765763545185859
1.5744832759964542,-1.3276427419751542,-0.01588918682414448,0.09956009246498028,-1.0903578130270808
1.571377743888164,-1.3463208654508918,-0.015166134258757166,0.08722114229241323,-0.9948366979385337
1.568429801109947,-1.3625579759024689,-0.01431329352341425,0.07514996222337603,-0.8900079640906344
1.5656679139230734,-1.3764082104930893,-0.0133055783453206,0.06335238368281251,-0.7761710302481661
1.5631265006774793,-1.387925994964199,-0.01210855411062029,0.051825461028275406,-0.6540433514673853
1.560848333536669,-1.397164109693307,-0.010673117297482833,0.04055568626281385,-0.5248646412378974
1.5588884073764784,-1.4041717778373624,-0.008926144304424611,0.029520995177714802,-0.390437869720189
1.5573206800715331,-1.4089941377780804,-0.006751128745025802,0.018702604229487087,-0.25302346990050506
1.55625231755632,-1.4116767897836908,-0.003932496407107046,0.008123915826641856,-0.11500135490565494
