x,y,v_x,v_y,omega
2.375,32.48,0.0,2.717948717948718,-2.979591836734694
2.3745192495341154,31.995672373963036,-0.0053416718431622085,2.6634693491286217,-2.8240308470122035
2.373136625506594,31.520992939119942,-0.010020817351515544,2.610746593572414,-2.6803491408807534
2.37096442277027,31.0556538297482,-0.014114768607643723,2.559687955002513,-2.5473519006337564
2.368101896379058,30.59936323511964,-0.017691080183600664,2.5102075408703826,-2.423987474101582
2.3646368990354985,30.151844266232146,-0.020808890300394706,2.4622254467684277,-2.3093277892282402
2.3606472922679744,29.71283392678229,-0.02352007378320589,2.415667213785512,-2.2025517630380356
2.3562021656780137,29.28208217621226,-0.0258702216608007,2.370463348103742,-2.1029311999434395
2.3513628928978574,28.859351074421845,-0.027899475896492578,2.326548894011951,-2.0098187675249464
2.346184048229544,28.444413999189894,-0.02964324264032356,2.2838630530097515,-1.9226377124000673
2.340714204096236,28.037054928559776,-0.031132803285318963,2.2423488428804474,-1.8408730386509105
2.33499662626483,27.637067781457787,-0.03239583928586135,2.2019527915860717,-1.7640639196069194
2.3290698811698,27.24425581066813,-0.03345688399225134,2.1626246616323463,-1.6917971529788185
2.322968367481259,26.858431043012942,-0.03433771254708774,2.1243172012030995,-1.6237015012724731
2.316722782234983,26.47941376220352,-0.035057679078203896,2.086985918901574,-1.5594427855301691
2.3103605303140267,26.10703203035794,-0.035634008932420524,2.05058887938266,-1.4987196218925711
2.3039060847884127,25.74112124463553,-0.036082052463291894,2.015086517532998,-1.4412597081478735
2.2973813045387947,25.381523725832356,-0.03641550586579475,1.9804414691689287,-1.3868165820497775
2.290805714677626,25.028088336123375,-0.03664660370274557,1.9466184164864264,-1.335166785312259
2.284196754508935,24.680670123434695,-0.03678628706048906,1.9135839467211264,-1.2861073772824265
2.277569997112294,24.339129990189733,-0.03684435067997188,1.8813064226673515,-1.2394537507195251
2.2709393440788923,24.003334384401523,-0.03682957191337764,1.8497558638682883,-1.1950377091640367
2.2643171984521295,23.673155011284702,-0.03674982393954086,1.8189038374297084,-1.1527057713054665
2.2577146185187784,23.348468563738273,-0.0366121753199168,1.7887233575306014,-1.1123176727456126
2.2511414547487907,23.029156470207727,-0.036422977679946344,1.7591887928088095,-1.0737450397648278
2.244606471883169,22.715104658574766,-0.03618794304918242,1.7302757808907407,-1.036870213262127
2.238117457912534,22.406203334847383,-0.0359122121800944,1.701961149413543,-1.0015852040628392
2.231681321467775,22.10234677553399,-0.03560041498389678,1.6742228429574688,-0.9677907633578409
2.2253041789531967,21.80343313268479,-0.035256724066971036,1.6470398553669874,-0.9353955542289725
2.218991432587438,21.50936425067242,-0.03488490221924228,1.620392166992681,-0.9043154120862553
2.212747840374361,21.2200454938641,-0.03448834459272115,1.5942606864331448,-0.8744726834440283
2.2065775789019906,20.93538558440931,-0.034070116211393456,1.568627196397803,-0.8457956338367937
2.2004842997596397,20.655296449432143,-0.03363298537028336,1.54347430334852,-0.8182179168561863
2.1944711802694346,20.379693076975812,-0.033179453409774386,1.5187853906107074,-0.7916780973071845
2.188540969146507,20.108493380100203,-0.032711781289419456,1.4945445746738468,-0.7661192223589066
2.1826984560044878,19.841619018510947,-0.03220503139968166,1.4707261096511997,-0.7403451933785242
2.1769474757751515,19.578994277875697,-0.031694748926279284,1.4473265640738262,-0.7156608128382694
2.1712885506224815,19.32054500810097,-0.03118219721450089,1.4243319889786827,-0.6920077949568565
2.165721987906432,19.066199517018326,-0.03066849963049485,1.40172902305073,-0.6693315586426932
2.1602479041138536,18.8158884674232,-0.030154653620371688,1.3795048613395495,-0.647580954397407
2.154866246388694,18.56954477956661,-0.02964154332584658,1.3576472259559034,-0.6267080140422353
2.1495768119072483,18.32710353875637,-0.02912995091243832,1.3361443386023317,-0.6066677211388457
2.1443792653177787,18.088501907749787,-0.028620566748335158,1.314984894804144,-0.5874178001948838
2.1392731544403603,17.85367904364277,-0.028113998556317014,1.294158039718256,-0.5689185229387557
2.1342579244020343,17.622576018981462,-0.027610779647304715,1.2736533454073924,-0.5511325301208141
2.1293329303639017,17.395135746841927,-0.027111376331945648,1.253460789476307,-0.5340246674518151
2.1244974489803927,17.171302909641312,-0.026616194595930762,1.2335707349749707,-0.5175618344265077
2.1197506887163833,16.951023891460252,-0.02612558611528714,1.213973911481233,-0.5017128449024677
2.115091799134848,16.73424671367153,-0.025639853679545698,1.1946613972823354,-0.48644829841351317
2.1105198792561914,16.52092097368384,-0.025159256083307473,1.1756246025809296,-0.4717404612947446
2.1060339850800753,16.31099778662243,-0.024684012540205174,1.156855253656969,-0.4575631567837473
2.101633136351384,16.104429729780314,-0.024214306667475725,1.1383453779220782,-0.4438916633409371
2.09731632264373,15.901170789684627,-0.023750290084234012,1.1200872898077796,-0.430702620502438
2.09308250882657,15.701176311632928,-0.0232920856619892,1.1020735774333323,-0.4179739416421361
2.0889306399754197,15.504402951563662,-0.022839790461904236,1.0842970900029552,-0.40568473307645136
2.0848596457787747,15.310808630133668,-0.02239347838970625,1.066750925885872,-0.39381521899659866
2.080868444490065,15.1203524888837,-0.021953202595958198,1.0494284213360017,-0.38234667175927717
2.076955946468239,14.932994848380453,-0.0215189976465539,1.0323231398112078,-0.3712613471083843
2.073121057346331,14.748697168230503,-0.02109088148575961,1.0154288618548817,-0.3605424239379652
2.069362680863545,14.567422008868093,-0.020668857211859685,0.9987395755052477,-0.3501739482406103
2.0656826916004403,14.389351110513413,-0.020219912378193212,0.9798259617689625,-0.38808837596157786
2.062079931187712,14.214675359114771,-0.019810758874341083,0.9610157204381655,-0.4271987454846797
2.0585473469768645,14.043376379233148,-0.019440176801742978,0.942306278246536,-0.4674039376715913
2.055078108191693,13.875436249639296,-0.01910692081127628,0.9236951616851452,-0.5086042241978987
2.0516656102059687,13.710837485582356,-0.01880972347454683,0.905179994503085,-0.5507010494798517
2.04830347824612,13.549563021477091,-0.018547298301551465,0.8867584955554302,-0.5935968133316689
2.0449855705807494,13.391596193947134,-0.018318342424786326,0.8684284769996536,-0.6371946534028962
2.0417059812554643,13.23692072516117,-0.01812153896726895,0.8501878428443751,-0.681398226418194
2.0384590424285656,13.085520706398022,-0.017955559109386326,0.8320345878572734,-0.7261114872067107
2.035239326360695,12.937380581775074,-0.017819063866950362,0.8139667968421574,-0.7712384644643004
2.0320416471095415,12.7924851320724,-0.017710705590311723,0.7959826442986373,-0.8166830321386287
2.028861061979149,12.650819458582177,-0.01762912919182636,0.7780803944816068,-0.862348675263894
2.0256928727723125,12.51236896690946,-0.01757297310635797,0.7602584018819198,-0.9081382489976237
2.022532626893928,12.377119350646204,-0.01754086998680441,0.7425151121542718,-0.9539537295257753
2.019376118353071,12.245056574835207,-0.017531447133823874,0.7248490635234874,-0.9996959554030962
2.0162193887119897,12.11616685913453,-0.01754332665597226,0.7072588887062476,-1.0452643577821377
2.0130587280311545,11.990436660585697,-0.017575125353307484,0.6897433173918834,-1.0905566778551465
2.0098906758610853,11.867852655880426,-0.017625454314126505,0.6723011793333515,-1.1354686696868508
2.0067120223338395,11.748401723010701,-0.017692918210828606,0.65493140810803,-1.1798937864513996
2.0035198094099447,11.632070922175384,-0.017776114276890364,0.6376330456177149,-1.223722847901887
2.0003113323401966,11.518847475803039,-0.017873630942533667,0.6204052474083507,-1.2668436866944979
1.9970841414062066,11.408718747535033,-0.017984046101800315,0.6032472889028221,-1.3091407709600298
1.9938360440089942,11.301672219994842,-0.018105924978338322,0.5861585726548444,-1.350494800262328
1.9905651071813384,11.197695471148506,-0.018237817551169096,0.5691386367488915,-1.390782271805587
1.9872696606071885,11.096776149036955,-0.018378255494941702,0.5521871644905589,-1.4298750134509217
1.9839483002403018,10.998901944632934,-0.018525748581576656,0.5353039955541299,-1.467639679779009
1.9805998926246136,10.904060562542877,-0.018678780481625683,0.5184891387798158,-1.5039372070939387
1.9772235800308098,10.812239689236858,-0.01883580389397325,0.501742786842615,-1.538622222911017
1.973818786537417,10.723426958446666,-0.018995234921500907,0.4850653330484175,-1.571542405120177
1.9703852252006788,10.637609913322692,-0.019155446597813403,0.46845739055130886,-1.6025377856860092
1.966922906475851,10.554775964883433,-0.019314761455827587,0.45191981432932443,-1.6314399934645394
1.9634321480736898,10.4749123462264,-0.01947144301263093,0.435453726304366,-1.6580714305299962
1.9599135864602024,10.398006061894915,-0.01962368602611931,0.4190605440454652,-1.6822443763776818
1.9563681902357226,10.324043831711109,-0.019769605356989635,0.40274201355238914,-1.7037600145987097
1.952797275661636,10.253012028290449,-0.01990722324396937,0.386500246677155,-1.7224073772511428
1.9492025246404059,10.184896607347387,-0.020034454769700234,0.3703377638013208,-1.7379622033880315
1.9455860054979135,10.119683029785524,-0.020149091257993558,0.3542575424416154,-1.7501857103497445
1.9419501969678685,10.057356174441082,-0.02024878129806113,0.33826307249660614,-1.7588232799288317
1.9382980158379408,9.99790024021916,-0.020331009034469463,0.3223584188580852,-1.7636030670169411
1.9346328487889388,9.941298636235686,-0.020393069287775498,0.3065482920693822,-1.7642345467890475
1.9309585890455738,9.887533858467048,-0.02043203897183582,0.2908381275821586,-1.760407029250558
1.927279678565835,9.836587351334899,-0.02044474413637192,0.2752341738861618,-1.7517881890870373
1.923601156634629,9.788439352650446,-0.020427721765917253,0.25974358927440505,-1.7380226871701845
1.9199287159101024,9.743068720464631,-0.020377175173266832,0.2443745461235401,-1.718731002110582
1.9162687672204686,9.700452740703664,-0.020288921378221098,0.2291363401094194,-1.6935086522139084
1.91262851476177,9.66056691514505,-0.020158328162873537,0.21403949943074105,-1.6619260792369155
1.9090160438629846,9.623384730508462,-0.019980237379187072,0.1990958854202281,-1.623529598562824
1.9054404242637948,9.588877411500778,-0.01974886927847729,0.18431877022068816,-1.5778440142411938
1.9019118330580054,9.557013664009123,-0.019457699674739867,0.1697228685754815,-1.5243777767075533
1.8984417033687233,9.527759419912652,-0.019099296872838647,0.1553242880519792,-1.4626319574083766
1.8950429079017503,9.501077603037132,-0.01866509720463839,0.14114034389824237,-1.3921148620963246
1.891729991538409,9.476927947648175,-0.018145084610265202,0.1271891604234975,-1.3123648252583617
1.8885194753423011,9.455266917565787,-0.017527317568712116,0.11348895160303549,-1.2229845917036701
1.8854302678212584,9.436047795700091,-0.016797210442873474,0.10005684690470427,-1.1236915189784518
1.8824842412960376,9.419221038134136,-0.01593641761513521,0.08690712605036513,-1.0143880937615566
1.8797070670275917,9.404735004679075,-0.01492107425648551,0.07404880122810326,-0.895255685107007
1.8771294611409515,9.392537165468884,-0.013718991150628168,0.06148274555179535,-0.7668685564878879
1.8747890921031667,9.382575790259715,-0.01228510926920148,0.04919920121675135,-0.630311065479825
1.8727335890867711,9.374801861522737,-0.010553813135193274,0.03717778474964483,-0.4872555134090911
1.8710255536407066,9.369170354175623,-0.008424358487749379,0.025394519107184713,-0.3399257911331024
1.8697520699909815,9.365638659302647,-0.005725459842528301,0.013846535036972736,-0.1908544240530634
1.86904966224575,9.364154739486484,-0.0020790706600430702,0.002641462920384488,-0.04238294077471874
