x,y,v_x,v_y,omega
2.375,32.48,0.0,3.641025641025641,-7.877551020408164
2.3721187726299715,31.655301736766948,-0.02505415104372708,3.5302636044791345,-7.205340726377651
2.3640293138952235,30.855353439756765,-0.04528896838886257,3.425808543435482,-6.620325212509928
2.3517366182211275,30.078771601611088,-0.061604037472841884,3.3270770056573644,-6.1080335291604415
2.336059787070807,29.324297907659982,-0.0747162333995115,3.23356381130878,-5.656824372849737
2.3176693272485194,28.59078288940338,-0.08520080853342381,3.1448276517921228,-5.257255274546637
2.297116179419807,27.87717250064087,-0.09352221606407732,3.0604800765775138,-4.901609496468569
2.2748545099840216,27.18249694617304,-0.1000575181601427,2.9801769187949527,-4.583536865447898
2.2512597450127156,26.50586127680517,-0.10511435115555975,2.903611510490865,-4.297778150713477
2.2266429379226977,25.846437391067326,-0.10894484093155299,2.8305092350555774,-4.0399515048750825
2.201262287225169,25.203457173041617,-0.11175646948174273,2.7606230956027877,-3.806385546131472
2.175332421638148,24.576206559305433,-0.11372062257930693,2.6937300673205424,-3.593987856029895
2.149031923907648,23.96402037425955,-0.1149793576859099,2.6296280635132194,-3.4001406207498124
2.122509456368032,23.36627780728873,-0.1156507948324904,2.5681333884069764,-3.2226172530416095
2.0958887700168356,22.78239843083857,-0.11583343430834618,2.509078580724835,-3.05951535759396
2.069272817342927,22.211838677995008,-0.11560963242129559,2.4523105744365834,-2.9092025190078212
2.0427471421475096,21.65408871318804,-0.1150484127562479,2.3976891195370396,-2.770272217081152
2.016382683426056,21.108669641377297,-0.11420775003900147,2.3450854179477023,-2.6415077903739204
1.9902381023475364,20.575131010343924,-0.11313643325247202,2.2943809388642293,-2.521852833088374
1.964361719505333,20.05304856810963,-0.11187559146234133,2.2454663849122456,-2.410386762558101
1.938793132463972,19.542022243465418,-0.11045994802775269,2.1982407859069975,-2.3063045640120015
1.9135645700985715,19.0416743224423,-0.10891885514964239,2.1526107012505364,-2.208899926688427
1.8887020295000898,18.551647797534404,-0.10727715005454509,2.1084895153398744,-2.1175511461013143
1.8642262326776275,18.071604869773438,-0.10555586579295369,2.0657968130163504,-2.0317092925624793
1.8401534334546525,17.601225586491402,-0.10377282310248197,2.0244578242187288,-1.9508882443046032
1.8164960994646195,17.140206599902527,-0.10194312463693443,1.9844029287280183,-1.874656260985673
1.7932634897213702,16.68826003356942,-0.1000795687826243,1.9455672132989896,-1.8026288347037052
1.770462144652149,16.24511244545772,-0.0981929970366917,1.9078900746288565,-1.734462604487849
1.748096302565221,15.810503877679992,-0.09629258632789917,1.871314862568802,-1.6698501592888342
1.726168254145907,15.384186984225046,-0.09438609557917924,1.8357885587785359,-1.6085155858642648
1.7046786446287394,14.96592622899632,-0.09248007413532101,1.8012614866886525,-1.5502106432604876
1.6836267316958233,14.555497147369767,-0.0905800383248185,1.7676870491944205,-1.494711466088081
1.6630106058359102,14.152685665250068,-0.08869062132659984,1.735021490976872,-1.4418157154514566
1.6428273788121943,13.757287470271713,-0.08681570061875574,1.7032236827479448,-1.391340109991588
1.62307334498698,13.369107430374008,-0.08495850655701899,1.6722549250581742,-1.3431182806381454
1.6037441195040578,12.987959055488556,-0.08312171503361018,1.6420787695979173,-1.2969989018204386
1.5848347567073675,12.613663998524746,-0.08130752667674045,1.6126608561743512,-1.252844059434232
1.5663398516551026,12.246051592231943,-0.07951773464730166,1.583968763763075,-1.210527822105453
1.5482536271537368,11.884958418863835,-0.07775378275588117,1.55597187422046,-1.169934987473453
1.53057000837188,11.530227909876864,-0.07601681534721913,1.5286412474053754,-1.1309599795295922
1.5132826867873859,11.181709973166214,-0.07430772017012359,1.501949506600288,-1.093505876647637
1.4963851749628958,10.839260645584002,-0.07262716526022422,1.475870733245047,-1.05748355295705
1.4798985285658006,10.502745844544688,-0.07073497732321185,1.4503449279663831,-1.0158002201572545
1.4638413055641992,10.172036688229134,-0.06889304877766975,1.4253868660819151,-0.976227321489005
1.4482020360014163,9.847005162174693,-0.06710059959435698,1.4009742300436558,-0.9386308649634629
1.432969440738914,9.52752825433059,-0.06535675051435821,1.3770858381659374,-0.9028869831619112
1.4181324519169416,9.213487702147372,-0.06366054358974998,1.3537015721229069,-0.8688810475679354
1.40368022904083,8.904769755706813,-0.062010959680784586,1.3308023099689024,-0.8365068706459455
1.3896021713433746,8.601264955678307,-0.06040693334056603,1.308369864192013,-0.8056659859783364
1.3758879269817612,8.302867924994747,-0.058847365456072775,1.2863869243606707,-0.7762669979504642
1.362527399548733,8.009477173237062,-0.057331133961563654,1.2648370039670296,-0.748224993493765
1.3495107523101788,7.720994912803221,-0.05585710289542953,1.243704391109861,-0.7214610092850268
1.3368284105233856,7.437326886015732,-0.05442413003320595,1.2229741026943692,-0.6959015485728883
1.324471062140444,7.1583822023923,-0.05303107329672121,1.2026318418572137,-0.67147814247708
1.3124296571585141,6.884073185368173,-0.05167679611136456,1.1826639583525933,-0.6481269511953217
1.3006954058418643,6.614315227816739,-0.05036017185950276,1.1630574116598866,-0.6257884010687558
1.289259776008904,6.349026655767382,-0.04908008755754313,1.143799736595401,-0.6044068539091981
1.2781144895501355,6.088128599767398,-0.047835446866529616,1.1248790112305633,-0.5839303053887981
1.2672515183194157,5.831544873378167,-0.04662517253103281,1.1062838269366455,-0.564310109642169
1.2566630795206164,5.579201858335363,-0.04544820832809159,1.088003260392085,-0.545500727538907
1.2463416306942567,5.331028395938947,-0.04430352059677487,1.0700268474028425,-0.527459496356012
1.2362798643935589,5.086955684271711,-0.04319009940929396,1.0523445583992024,-0.5101464188196825
1.2264707026263169,4.846917180875128,-0.0421069594362881,1.034946775484129,-0.49352396969826146
1.216907291127694,4.6108485105387835,-0.04105314055173734,1.0178242709188656,-0.4775569183162035
1.2075829935193159,4.378687377884894,-0.04002770821676796,1.0009681869410458,-0.4622121655258068
1.1984913854016168,4.150373484452459,-0.03902975367626787,0.9843700168192578,-0.4474585938216933
1.1896350204637711,3.925960776782798,-0.03798211534847706,0.9670448324821399,-0.4530326840918411
1.1810145457052141,3.7055180615024774,-0.03697853472593216,0.9498483438684856,-0.46104246460018683
1.1726198717333365,3.489016185647781,-0.03601863024691668,0.9327766635636721,-0.47135323732421186
1.1644410094894277,3.276426871539744,-0.03510191100446441,0.9158260678105663,-0.4838348011193103
1.156468094161454,3.067722680054011,-0.034227787499655646,0.8989929885871054,-0.49836112386393444
1.1486914067282645,2.862876975643456,-0.033395581484601006,0.8822740062873027,-0.5148100288315997
1.1411013933365008,2.661863892978694,-0.03260453496551872,0.8656658429715074,-0.5330628938739222
1.133688682695968,2.464658305079084,-0.031853818430419636,0.8491653561555302,-0.553004362069468
1.1264441016650164,2.2712357928133358,-0.031142538360463302,0.8327695331118355,-0.57452206255368
1.119358689184479,2.0815726156546397,-0.030469744078992875,0.8164754856594238,-0.5975063402960085
1.1124237087068258,1.8956456835802378,-0.02983443398755522,0.8002804454223311,-0.621849993631989
1.105630659256367,1.7134325300095838,-0.02923556123382628,0.784181759539879,-0.6474480183906753
1.0989712852464675,1.5349112856787777,-0.028672038852255152,0.7681768868149671,-0.6741973574817248
1.0924375851708046,1.3600606533517237,-0.0281427444143792,0.7522633942898385,-0.7019966548216414
1.0860218192776077,1.188859883270574,-0.027646524222114912,0.7364389542419062,-0.7307460124851929
1.07971651632857,1.0212887492492797,-0.027182197073863896,0.7207013415954486,-0.760346749965734
1.0735144795376301,0.8573275253147479,-0.02674855762996062,0.7050484317483,-0.790701164416883
1.0674087917790929,0.6969569627998382,-0.026344379400798666,0.6894781988161311,-0.8217122907274165
1.0613928201495453,0.5401582677914156,-0.0259684173778759,0.6739887143005773,-0.8532836602509716
1.0554602199637184,0.38691307883483717,-0.02561941032496671,0.6585781461913885,-0.8853190569716678
1.0496049382608297,0.23720344479337285,-0.025296082743631005,0.643244758517009,-0.9177222698354923
1.0438212168950205,0.09101180275721532,-0.024997146524274056,0.6279869113626032,-0.9503968399145155
1.0381035952812703,-0.05167904410814117,-0.024721302290945723,0.6128030613796286,-0.983245800995923
1.0324469128666391,-0.19088594889071686,-0.02446724044497798,0.5976917628166828,-1.0161714120995582
1.0268463113958892,-0.3266254435620155,-0.02423364190936894,0.5826516691076369,-1.0490748803251955
1.0212972370404754,-0.4589137620413055,-0.024019178572490193,0.5676815350601285,-1.0818560723130488
1.0157954424606284,-0.5877668638381977,-0.02382251342617874,0.5527802196954517,-1.1144132124670234
1.010336988871822,-0.7132004584301654,-0.023642300389528092,0.5379466897999069,-1.146642565938866
1.0049182481893753,-0.8352300305468177,-0.02347718380566179,0.5231800242579446,-1.1784381042017593
0.9995359053283683,-0.9538708665501332,-0.023325797594399122,0.5084794192491331,-1.209691150853326
0.9941869607405343,-1.0691380821202827,-0.023186764038940468,0.4938441944043559,-1.240290005080167
0.9888687332754211,-1.1810466514804574,-0.023058692179434986,0.4792738000319329,-1.2701195399893546
0.9835788634600331,-1.2896114384214457,-0.022940175780461383,0.4647678255418535,-1.299060772768144
0.9783153172994901,-1.3948472294186374,-0.022829790832956467,0.4503260092163207,-1.3269904033746205
0.9730763907111568,-1.4967687691707425,-0.022726092543853854,0.43594824949765304,-1.353780318194415
0.9678607147163845,-1.595390798931895,-0.02262761175851463,0.4216346179906182,-1.3792970548309431
0.9626672615276999,-1.690728098057484,-0.022532850751785922,0.4073853744057919,-1.4034012239427978
0.9574953516852469,-1.78279552924009,-0.02244027831302176,0.393200983703811,-1.425946883823357
0.9523446624148326,-1.8716080879758508,-0.022348324038406066,0.37908213573756266,-1.4467808632664003
0.9472152374014511,-1.9571809568746588,-0.02225537173012866,0.3650297677303452,-1.465742028225046
0.942107498197098,-2.0395295655104704,-0.0221597517859845,0.3510450899723877,-1.4826604879193348
0.9370222575106202,-2.1186696566012415,-0.022059732444257203,0.33712961516473966,-1.497356736482057
0.9319607346609764,-2.1946173594121134,-0.021953509726558375,0.32328519188633453,-1.5096407271010406
0.9269245735145497,-2.2673892713899235,-0.021839195894543424,0.30951404270329774,-1.5193108771341288
0.9219158632732734,-2.3370025491602107,-0.021714806203511884,0.2958188074731102,-1.526153005152546
0.9169371625350129,-2.4034750101467637,-0.021578243694405128,0.2822025924099896,-1.529939204762227
0.9119915271132881,-2.4668252462013314,-0.02142728171189786,0.26866902545581056,-1.5304266660188135
0.907082542183528,-2.527072750746811,-0.021259543764277782,0.2552223184179273,-1.5273564642468078
0.9022143594228871,-2.584238061022404,-0.02107248024129624,0.2418673361524346,-1.5204523494884346
0.8973917399382587,-2.6383429170437367,-0.020863341364166937,0.2286096727287148,-1.5094195896691065
0.8926201039450739,-2.6894104388079967,-0.020629145533092773,0.21545573391701797,-1.49394394982199
0.887905588387689,-2.7374653230094665,-0.020366641922427837,0.20241282435661823,-1.4736909326445689
0.8832551140126466,-2.7825340599711623,-0.020072265686637374,0.189489236179889,-1.4483054684503829
0.8786764638706701,-2.8246451704705606,-0.01974208337402808,0.17669433338011195,-1.417412334083117
0.874178375916651,-2.863829460382192,-0.019371724921789877,0.16403862237319689,-1.380617713040975
0.8697706534381373,-2.9001202881953816,-0.018956296630502557,0.15153379339365847,-1.3375124999442274
0.8654642987009074,-2.9335538359434636,-0.018490266301932515,0.13919270876357207,-1.2876782235856168
0.8612716778320584,-2.9641693671492177,-0.01796730647066659,0.1270293017212358,-1.2306968395681588
0.8572067291851078,-2.992009445093693,-0.01738007306803473,0.11505833257855066,-1.1661661476802818
0.8532852342544188,-3.017120070020532,-0.016719882850999016,0.10329492765482784,-1.093723217973337
0.8495251812443818,-3.039550674152096,-0.01597623027975681,0.09175380392400095,-1.0130788848231522
0.8459472692023109,-3.059353889594732,-0.015136048346946604,0.08044806949022532,-0.9240668241492215
0.8425756291537618,-3.0765849817623305,-0.014182560770870881,0.06938751457584749,-0.8267102933670379
0.8394388841751848,-3.091300835351575,-0.01309348252110361,0.05857642967845362,-0.7213068632533464
0.8365717438456672,-3.1035584263919915,-0.011838172518179403,0.048011318499097226,-0.6085239297513744
0.8340174560829272,-3.1134128803852334,-0.010373025418689466,0.03767958578993585,-0.4894824717192164
0.831831706696357,-3.1209156182478566,-0.008633490986270023,0.027561613015509523,-0.36578314803945555
0.8300893157504008,-3.126113948028255,-0.006517734630741227,0.017641254640116424,-0.23940681535464986
0.8288981368119661,-3.12905567006068,-0.0038403430947781658,0.007938936946162562,-0.11242327965380902
