x,y,v_x,v_y,omega
2.375,32.48,0.0,2.41025641025641,-3.959183673469388
2.3742340394188477,31.979065659393573,-0.007294862677642521,2.3605468336142867,-3.7458994888670776
2.3720333449612707,31.488393719434303,-0.013664132156423623,2.3125192612359284,-3.5494785750929245
2.368580644457446,31.007640883898315,-0.019218729784760684,2.2660791724401164,-3.3681655763808074
2.364036889785695,30.536482923669606,-0.02405512423191683,2.221139496404734,-3.200423293333656
2.3585440728741314,30.074613195768713,-0.02825741778297482,2.1776198169371073,-3.0449015826130537
2.352227638658393,29.621741317799533,-0.03189909855739442,2.1354456875312837,-2.900411245846878
2.345198558924614,29.177591976634687,-0.03504451795478445,2.0945480378481878,-2.7659020169777535
2.337555119737477,28.741903853725166,-0.03775014097033062,2.054862656528206,-2.64044393299346
2.3293844661064567,28.314428652281585,-0.04006560789652847,2.0163297381725958,-2.5232115106242667
2.320763940210621,27.894930213888628,-0.04203463873047913,1.978893484617429,-2.4134702601706852
2.3117622435255853,27.483183713999228,-0.04369580588890717,1.9425017524244999,-2.3105651538346654
2.3024404482997416,27.078974927300813,-0.04508319626198484,1.9071057399413323,-2.2139107347908262
2.292852879796411,26.682099555222642,-0.04622697996020844,1.8726597084222347,-2.122982608552212
2.283047887386458,26.292362608913376,-0.047153900134584995,1.8391207326183747,-2.037310102855528
2.2730685198099096,25.909577841904937,-0.04788769583254106,1.8064484769858071,-1.9564699185406735
2.2629531176204174,25.53356722742376,-0.048449467876910166,1.7746049942634932,-1.8800806234517518
2.2527358338991803,25.16416047594104,-0.048857996134872794,1.7435545436672155,-1.8077978655834352
2.242447092708107,24.80119458908901,-0.04913001520868474,1.713263426352086,-1.7393102015892403
2.2321139933912226,24.444513446528045,-0.04928045447592489,1.6836998361332907,-1.6743354531855887
2.2217606676847392,24.09396742274184,-0.04932264749058188,1.65483372373534,-1.612617517584251
2.2114085956239533,23.74941303107675,-0.049268514993095064,1.6266366730750255,-1.5539235693888647
2.201076885409997,23.410712592634376,-0.04912872513982219,1.5990817882809447,-1.4980416008172541
2.1907825216973698,23.07773392788132,-0.04891283402805578,1.572143590319579,-1.4447782549967012
2.180540586164342,22.75035006906258,-0.048629409143636004,1.5457979222398348,-1.3939569136957632
2.1703644537163846,22.42843899169965,-0.048286137979770494,1.5200218621690471,-1.3454160064238867
2.1602659672341358,22.111883363625694,-0.0478899237559327,1.4947936432971671,-1.2990075125280927
2.1502704780797024,21.80057316215514,-0.04730521104819484,1.4700654183271795,-1.2507620477406503
2.1404004011573248,21.494402437013143,-0.04669552154587937,1.4458462496918318,-1.2048139721627316
2.130660558631903,21.193266262594513,-0.04606488345813461,1.4221173161998941,-1.161025908691836
2.121054972748508,20.897063571307257,-0.0454168868599155,1.3988606960596772,-1.1192702534376724
2.1115869529699034,20.60569697039006,-0.0447547300791732,1.3760593126755265,-1.0794283703747585
2.1022591739105043,20.31907256970071,-0.04408126096272314,1.3536968843658908,-1.041389861216997
2.093073745079189,20.037099819686972,-0.04339901362123073,1.3317578776697194,-1.0050519026733267
2.084032273325204,19.75969135881789,-0.04271024117862986,1.3102274639406162,-0.9703186441447523
2.075135918777897,19.486762869813617,-0.04201694498619954,1.289091478957197,-0.9371006597111116
2.066385444980317,19.218232944066198,-0.04132090070503834,1.2683363853039384,-0.9053144489462426
2.0577812638370716,18.9540229536928,-0.04062368161158337,1.2479492372998382,-0.8748819817059275
2.049323475926856,18.694056930707674,-0.03992667943808905,1.2279176482727958,-0.8457302825653273
2.0410119066684693,18.43826145283945,-0.039231123022733634,1.2082297599960408,-0.8177910510512398
2.032846138774874,18.18656553555732,-0.03853809501150922,1.1888742141194557,-0.7910003142276586
2.024825541381974,17.93890052990321,-0.03784854682563356,1.1698401254434727,-0.7652981085579136
2.0169492961965307,17.695200025757508,-0.03716331208335103,1.151117056896561,-0.7406281882892503
2.009216420970243,17.455399760193988,-0.036483118643195256,1.132694996089341,-0.7169377578913613
2.001625790573958,17.219437530605042,-0.03580859941666305,1.114564333329204,-0.6941772263336901
1.9941761559166562,16.987253112301616,-0.03514030208145041,1.096715840989102,-0.6722999812112566
1.986866160927883,16.758788180313793,-0.034478697811626866,1.0791406541330444,-0.6512621809287469
1.97969435779921,16.533986235137395,-0.033824189128115384,1.061830252308848,-0.6310225633306648
1.9726592206598135,16.312792532190237,-0.033177116961377484,1.0447764424259807,-0.6115422693240592
1.96575915784302,16.095154014758002,-0.03253776700808405,1.0279713426429355,-0.5927846801820059
1.958992522884437,15.881019250225062,-0.03190637545461271,1.0114073671945945,-0.5747152673426045
1.9523576243778102,15.670338369399602,-0.03128313413230765,0.9950772120954985,-0.557301453631504
1.9458576376071792,15.463206444486204,-0.030621501778462342,0.9776077870797155,-0.5678002900565418
1.9394934441384324,15.259730600264778,-0.029989864590555974,0.96025739598149,-0.5803973317492972
1.933258747464578,15.059886193826202,-0.029388198969962694,0.9430226653382726,-0.5949737620281712
1.9271472672798264,14.863649276499338,-0.028816374218145806,0.9259003568223314,-0.6114141206878415
1.9211527609984673,14.670996566077996,-0.02827416179479938,0.9088873614761773,-0.629606045454458
1.9152690434065998,14.481905420211238,-0.027761243842034964,0.8919806943977231,-0.6494400221943205
1.9094900045953287,14.296353810864694,-0.02727722102721214,0.8751774898550666,-0.6708091428707086
1.9038096263134396,14.1143202997645,-0.026821619752683504,0.85847499681344,-0.6936088702756833
1.8982219968678558,13.93578401473885,-0.026393898776688414,0.8418705748594344,-0.7177368085891808
1.8927213246912886,13.760724626875046,-0.02599345528585421,0.8253616905101366,-0.743092478836687
1.887301950688371,13.589122328412262,-0.025619630456218914,0.8089459138973168,-0.7695770983292846
1.8819583594641514,13.420957811292016,-0.02527171453634762,0.7926209158193182,-0.797093363175879
1.8766851895321253,13.256212246289625,-0.0249489514829499,0.7763844651558429,-0.8255452329568761
1.8714772425928943,13.094867262650698,-0.024650543176391756,0.7602344266434425,-0.8548377166413452
1.8663294919691094,12.936904928156853,-0.024375653240608877,0.7441687590122242,-0.8848766588155652
1.8612370902774853,12.78230772954442,-0.024123410489143637,0.7281855134871325,-0.9155685252695267
1.8561953764144112,12.631058553198955,-0.023892912016322914,0.7122828326601733,-0.9468201869591126
1.8511998819279534,12.483140666046602,-0.023683225949943064,0.6964589497431807,-0.9785387013248802
1.8462463368458926,12.338537696561076,-0.02349339387920799,0.6807121882142132,-1.0106310899031268
1.8413306750268252,12.197233615801764,-0.023322432969051,0.6650409618744818,-1.043004111110685
1.836449039099295,12.05921271839457,-0.023169337769334743,0.6494437753368927,-1.0755640270210196
1.8315977850524172,11.924459603362141,-0.023033081724738412,0.6339192249719284,-1.1082163628750015
1.8267734865405398,11.792959154704207,-0.022912618388378183,0.6184660003417523,-1.1408656579844594
1.8219729389641302,11.664696521621607,-0.022806882339333798,0.6030828861592002,-1.1734152065894834
1.81719316338937,11.539657098269334,-0.02271478980123717,0.5877687648148276,-1.2057667871206668
1.8124314103698729,11.417826502913915,-0.02263523895588019,0.5725226195225135,-1.2378203781942865
1.8076851637355555,11.299190556359093,-0.0225671099423775,0.5573435381424363,-1.2694738595311439
1.8029521444160894,11.183735259490422,-0.022509264528729887,0.5422307177496636,-1.3006226958379628
1.7982303143695173,11.07144676977384,-0.0224605454386242,0.5271834700273209,-1.331159601523674
1.7935178806907102,10.962311376525541,-0.0224197753119189,0.5122012275755075,-1.3609741839419638
1.7888132999793531,10.856315474749806,-0.022385755272435463,0.49728355124102225,-1.389952562657209
1.7841152830532576,10.753445537317678,-0.02235726307133111,0.4824301385887776,-1.417976962025623
1.7794228001000876,10.653688085232211,-0.02233305076838224,0.46764083365375325,-1.444925274171027
1.774735086369187,10.557029655694631,-0.02231184190686169,0.4529156381327279,-1.4706705892215057
1.7700516485152924,10.463456767649898,-0.022292328130229338,0.43825472419805556,-1.4950806894692243
1.7653722717176725,10.37295588444923,-0.02227316518043464,0.4236584491416298,-1.5180175039357646
1.7606970277118785,10.285513373220326,-0.02225296820807949,0.40912737208602845,-1.5393365196916406
1.7560262838870817,10.20111546048297,-0.022230306313795755,0.39466227303163726,-1.5588861462234895
1.751360713620227,10.119748183487626,-0.02220369622767678,0.3802641745430584,-1.5765070292127206
1.7467013080393154,10.041397336687066,-0.022171595019100036,0.3659343664146723,-1.5920313103527668
1.7420493894325195,9.966048412675807,-0.022132391712289697,0.3516744336925663,-1.6052818303856253
1.737406626548136,9.893686536849167,-0.02208439766279224,0.33748628846592477,-1.6160712735212996
1.7327750520633476,9.824296394943723,-0.02202583552566688,0.323372205871644,-1.6242012530153211
1.7281570825384582,9.757862152525789,-0.0219548266161371,0.3093348647753407,-1.629461340204977
1.7235555412190893,9.694367365397373,-0.02186937642547101,0.2953773935905341,-1.631628043152652
1.7189736841038346,9.633794879795982,-0.02176735800552828,0.28150342166079195,-1.630463746800195
1.7144152297619661,9.576126721185496,-0.02164649286940837,0.26771713653432333,-1.6257156350410475
1.7098843934693955,9.5213439703858,-0.021504328964599397,0.25402334727231174,-1.6171146275721733
1.7053859263378133,9.46942662579431,-0.02133821514570494,0.24042755359902446,-1.6043743825253514
1.7009251602520858,9.420353450551168,-0.021145271385033342,0.22693602014517844,-1.5871904421775151
1.6965080596205728,9.374101803751238,-0.020922353676995863,0.21355585413988376,-1.5652396370489248
1.6921412812075534,9.330647455299093,-0.020666012161284393,0.20029508349959807,-1.5381799184575513
1.687832243696937,9.289964384871471,-0.020372440320774236,0.18716273009679577,-1.5056508682003455
1.6835892091972098,9.252024566891272,-0.02003741205758239,0.17416886971463535,-1.4672752462741472
1.6794213797444684,9.216797745712075,-0.019656201778049654,0.16132466532533982,-1.4226620965413188
1.6753390131640342,9.18425120876164,-0.019223479940370897,0.14864235325023673,-1.3714121525440806
1.6713535646875264,9.154349570734972,-0.01873317221684799,0.13613515176564345,-1.313126589847044
1.6674778639367305,9.12705458973408,-0.018178263505017868,0.12381704824285615,-1.2474205724055971
1.6637263419911137,9.102325047235393,-0.017550516929427985,0.11170240412559608,-1.1739435350205802
1.6601153313808692,9.080116738373889,-0.016840060310995244,0.09980529931731932,-1.092408674313252
1.656663474750334,9.060382636658073,-0.01603476474172073,0.08813852654759027,-1.0026344992505118
1.6533922983209606,9.043073314459221,-0.015119296490405934,0.07671216106053302,-0.9046010572734712
1.6503270383478756,9.028137707772668,-0.014073655634213367,0.06553171214472515,-0.7985216392829309
1.6474978596441856,9.015524288968194,-0.012870903448550325,0.05459608599311634,-0.6849256848598715
1.644941690283314,9.005182612296277,-0.011473566654987005,0.04389607278705812,-0.5647380508425155
1.6427050607942475,8.997064952211872,-0.009827666574217893,0.033414975635836563,-0.43932278285071624
1.6408487452783171,8.991127241737132,-0.007851528815595121,0.023134647933117414,-0.3104406251621685
1.6394563875489334,8.98732737909619,-0.005409020988058417,0.01305452007587336,-0.18006289701799746
1.6386562249387824,8.985614749076223,-0.0022115752990948347,0.0032562420190569135,-0.050015561560325966
