x,y,v_x,v_y,omega
2.375,32.48,0.0,3.333333333333333,-2.7346938775510203
2.374439414278325,31.886885835598516,-0.006228730240832853,3.2568240489053593,-2.5640198680031023
2.3728393713145226,31.3072727643124,-0.011549524912529186,3.1833211876070058,-2.4092591775905094
2.37035191125787,30.740636398941483,-0.016088920161385474,3.1126384276254164,-2.268487019637797
2.3671080146975108,30.186484498605893,-0.019954374953720728,3.0446049094367074,-2.140053482034429
2.363220752901486,29.644354333055563,-0.02323742277988457,2.9790635966780648,-2.022539002429615
2.358787921922195,29.113810322569652,-0.026016254767792617,2.9158698531654137,-1.9147178510754912
2.3538942528901927,28.594441917670597,-0.028357845587791503,2.8548902012685273,-1.8155280437305867
2.3486132728909643,28.085861688538255,-0.03031970995919067,2.7960012335352564,-1.7240464443735468
2.3430088766517434,27.587703598601657,-0.031951359365484405,2.7390886546491897,-1.6394680770410701
2.3371366580094115,27.099621440543743,-0.033295514438201335,2.6840464348831685,-1.5610888671305962
2.331045041143084,26.621287416054212,-0.03438911740988301,2.6307760594449405,-1.488291189149913
2.324776244345268,26.152390843241268,-0.0352641803436283,2.579185860698895,-1.420531720651787
2.31836710329627,25.692636977768124,-0.03594849797857416,2.5291904223360206,-1.3573311988114007
2.3118497761061487,25.24174593559424,-0.03646624857832619,2.4807100462627165,-1.2982657526985495
2.3052523485701917,24.799451706737223,-0.03683850182119589,2.4336702743708125,-1.2429595452459632
2.298599354970311,24.36550125077891,-0.03708364928858817,2.3880014584993305,-1.1910785076380321
2.291912227206685,23.9396536659573,-0.03721777030726026,2.3436383728518413,-1.1423249879636075
2.2852096829514186,23.521679424646983,-0.03725494364014157,2.3005198639294866,-1.0964331675165424
2.278508061791868,23.111359668859574,-0.03720751368820018,2.2585885337083864,-1.053165123658371
2.2718216169061045,22.708485560113907,-0.0370863183758396,2.2177904523545795,-1.0123074389031093
2.2651627686313986,22.312857678649642,-0.0369008846764495,2.1780748972483295,-0.9736682728034842
2.2585423253039796,21.92428546750253,-0.036659596739317186,2.1393941154974185,-0.9370748270654804
2.251969675928898,21.54258671743565,-0.03636984076158593,2.1017031074678747,-0.9023711456902346
2.245452958553562,21.167587089139133,-0.036038130075482774,2.0649594291600954,-0.8694162013122052
2.2389992076439533,20.79911966947824,-0.03567021336461514,2.029123011516476,-0.8380822266472078
2.2326144832795483,20.43702455889447,-0.035271168462106456,1.9941559949698455,-0.8082532563848539
2.2263039845759316,20.08114848735098,-0.03484548380030191,1.9600225777356437,-0.7798238501991941
2.2200721494002624,19.73134445646804,-0.03439712926268757,1.9266888765192236,-0.7526979720039055
2.2139227421536254,19.387471405720213,-0.033929617922167574,1.8941227984566427,-0.7267880043017744
2.2078589311472263,19.049393900767885,-0.03344605992671283,1.862293923235881,-0.7020138796002938
2.201883356889271,18.71698184217542,-0.03294920960612112,1.8311733944581878,-0.6783023134899022
2.195998192420273,18.390110192928326,-0.032441506716081335,1.8007338193983844,-0.6555861261935624
2.190205196681565,18.068658723305546,-0.031925112602893324,1.7709491764102938,-0.633803641265471
2.1845057617709105,17.752511771791568,-0.03140194195993689,1.7417947293005895,-0.6128981516996874
2.178900954826844,17.44155802082888,-0.030873690751915824,1.713246948062595,-0.5928174450533102
2.173391555186971,17.13569028631526,-0.030341860802224223,1.68528343542206,-0.5735133803322202
2.1679780873824552,16.834805319844214,-0.029807781470176004,1.6578828587006802,-0.5549415103624192
2.162660850459365,16.538803622771567,-0.029272628786382225,1.6310248865509334,-0.5370607442031952
2.1574399440557714,16.247589271267724,-0.028737442364657074,1.6046901301584366,-0.5198330448718738
2.1523152916099986,15.961069751584319,-0.028203140366151,1.5788600885460735,-0.5032231582622065
2.14728666102911,15.679155804826834,-0.027670532754836615,1.5535170976481776,-0.4871983696649082
2.1423536831064873,15.401761280581681,-0.027140333052079548,1.5286442828535383,-0.4717282847524155
2.1375158679424073,15.128802998797962,-0.026613168771032026,1.5042255147433363,-0.45678463228142324
2.132772619591064,14.86020061937134,-0.026089590688335947,1.480245367774678,-0.4423410861052944
2.1281258106273233,14.595876960049747,-0.0255416200198948,1.456684180243019,-0.42755173671998514
2.123576793601672,14.335757414014516,-0.025003013598454877,1.433532997926211,-0.413381286392926
2.119123874669621,14.079769400074149,-0.024473863424334656,1.4107782680778747,-0.39979694135092536
2.1147653469229795,13.827842725668905,-0.023954222649457964,1.3884070030915086,-0.3867679726936678
2.110499496937983,13.579909487822405,-0.023444110517165842,1.366406750758472,-0.37426556557580054
2.106324610484922,13.335903979279827,-0.022943516739071825,1.3447655663812963,-0.3622626808782468
2.1022389774947867,13.095762599510785,-0.022452405373542577,1.323471986608069,-0.3507339282147186
2.0982408963675265,12.85942377027824,-0.021970718262679056,1.302515004864653,-0.339655449236879
2.0943286776968715,12.626827855495986,-0.02149837807793335,1.2818840482715121,-0.329004810306038
2.090500647478184,12.397917085116859,-0.021035291018595234,1.2615689559410177,-0.31876090369222754
2.0867551498583117,12.172635482811824,-0.020581349202210494,1.241559958559388,-0.3089038565443504
2.0830905494797816,11.950928797216633,-0.02013643278145482,1.2218476591649643,-0.29941494694902476
2.0795052334658304,11.73274443653806,-0.019700411818001386,1.202423015041406,-0.29027652646179236
2.075997613087573,11.518031406325772,-0.01927314794041582,1.1832773206506688,-0.2814719485534291
2.072566125150033,11.306740250228938,-0.01885449581002836,1.1644021915363758,-0.27298550246699194
2.0692092331296887,11.098822993568653,-0.018444304416016317,1.1457895491334318,-0.26480235202865343
2.065925428092579,10.894233089568434,-0.01804241821853476,1.1274316064245493,-0.25690847899792807
2.0627132294188155,10.692925368095239,-0.01764867815661954,1.1093208543887474,-0.24929063058112247
2.059571185356505,10.494855986773068,-0.017262922535719778,1.0914500491909291,-0.24193627076622326
2.056497873425564,10.299982384340002,-0.016884987808066444,1.0738122000653474,-0.2348335351683856
2.053491900689652,10.108263236127694,-0.016514709257623494,1.056400557849172,-0.22797118910307923
2.050551903912459,9.919658411549975,-0.016151921600075055,1.0392086041255046,-0.22133858862910785
2.047676549612808,9.734128933494254,-0.015796459507156458,1.022230040938062,-0.21492564432643696
2.044864534031438,9.551636939516012,-0.015448158063620899,1.0054587810424047,-0.20872278759429805
2.0421145830209317,9.372145644742702,-0.015106853164231897,0.9888889386610281,-0.20272093927361265
2.039428221372626,9.195839396327557,-0.014741609594718092,0.9700693770627911,-0.24527889047941917
2.0368039172723953,9.022911674377546,-0.014417324852291925,0.9513497557150891,-0.2888944166020065
2.0342344201448124,8.853344710525246,-0.014132643231961936,0.9327276204215811,-0.3334709899446423
2.0317127247114515,8.68712116972987,-0.0138861949164955,0.9142006106381579,-0.3789132336784751
2.0292320732955766,8.524224133613217,-0.013676598593223165,0.8957664573246479,-0.4251267117044516
2.0267859576834764,8.36463708415258,-0.013502463763446899,0.8774229811268585,-0.4720177183624431
2.0243681205963013,8.208343887670875,-0.013362392760720274,0.859168090892072,-0.5194930670422178
2.0219725568235734,8.055328779063437,-0.013254982491811288,0.8409997825238832,-0.5674598767165324
2.0195935140672554,7.9055763461996165,-0.013178825911722892,0.8229161381852473,-0.615825355373726
2.017225493543447,7.759071514435377,-0.013132513241707357,0.8049153258618434,-0.6644965792750851
2.014863250387386,7.615799531170683,-0.013114632936742235,0.7869955993013997,-0.713380266900147
2.0125017939065026,7.475745950382187,-0.013123772406409785,0.7691552983485429,-0.762382546370076
2.0101363877257796,7.338896617057902,-0.013158518490508492,0.7513928496990856,-0.8114087150542756
2.0077625498697147,7.205237651455757,-0.01321745768799188,0.7337067681025393,-0.8603629899672806
2.005376052825651,7.074755433102286,-0.013299176134940681,0.7160956580471278,-0.9091482474504079
2.002972923634329,6.947436584440943,-0.0134022593241901,0.6985582159677834,-0.9576657505041516
2.00054944405512,6.823267954031621,-0.013525291555910767,0.6810932330246688,-1.005814861991272
1.9981021508556531,6.7022365991936965,-0.01366685510483112,0.6636995985078147,-1.0534927417652076
1.9956278362784932,6.584329767974051,-0.013825529085835817,0.6463763039326812,-1.1005940255919602
1.9931235487411894,6.469534880308927,-0.013999887995317643,0.6291224479020295,-1.1470104835240313
1.9905865938305363,6.357839508233795,-0.01418849990082963,0.6119372418216564,-1.192630655150394
1.9880145356573033,6.249231354978406,-0.014389924246200897,0.5948200165715732,-1.2373394588850195
1.9854051986441523,6.143698232764429,-0.014602709233254227,0.5777702302503979,-1.2810177721666032
1.9827566698270551,6.041228039100243,-0.01482538873449329,0.5607874771294331,-1.3235419791228202
1.9800673017594361,5.941808731340888,-0.01505647868349564,0.5438714979745211,-1.3647834819035902
1.977335716118621,5.845428299250493,-0.015294472881119629,0.5270221919187429,-1.4046081715108152
1.9745608081261932,5.752074735268998,-0.015537838145853742,0.5102396300978751,-1.4428758535505735
1.9717417519077691,5.661736002143751,-0.015785008725525386,0.49352407129375214,-1.4794396239149843
1.968878006933728,5.574399997539114,-0.016034379874930678,0.4768759798688824,-1.514145188977392
1.9659693257009296,5.49005451518217,-0.01628430048949634,0.46029604631937154,-1.5468301244764249
1.9630157628367066,5.408687202039367,-0.016533064668535942,0.44378521082289774,-1.5773230669036618
1.9600176858309006,5.3302855109460054,-0.01677890206264177,0.4273446902144673,-1.6054428309448245
1.9569757876298621,5.254836648027059,-0.01701996683778841,0.4109760088849264,-1.6309974464290733
1.9538911013587732,5.182327514152558,-0.017254325063198572,0.3946810341650842,-1.653783108424866
1.9507650174760758,5.112744639562983,-0.017479940300105315,0.3784620168301711,-1.6735830347467306
1.9475993037070896,5.046074110679399,-0.017694657133076278,0.362321637431888,-1.6901662264457278
1.944396128154255,4.982301487979605,-0.017896182342863297,0.3462630592324721,-1.7032861292019799
1.941158086040341,4.921411713677681,-0.018082063367290766,0.3302899885666806,-1.712679197442885
1.937888230610528,4.863389007793817,-0.018249663630630887,0.31440674347625663,-1.7180633692454181
1.9345901088025186,4.808216751053195,-0.018396134236143166,0.2986183314195359,-1.7191364697806695
1.9312678023951575,4.755877352921349,-0.018518381401201094,0.282930536712078,-1.7155745758999565
1.927925975472212,4.706352102994327,-0.018613028853747285,0.2673500180325942,-1.7070303969222693
1.9245699291994998,4.659621003956364,-0.018676374176390023,0.2518844157225415,-1.693131760426664
1.9212056651273492,4.615662584462044,-0.018704337736394912,0.2365424675476816,-1.6734803422954359
1.9178399585238597,4.574453690699446,-0.018692402302375975,0.2213341298144949,-1.6476508553749358
1.914480443662926,4.535969256209938,-0.018635540596889006,0.20627069784670232,-1.6151910226095816
1.9111357136101348,4.500182051032635,-0.018528126656347194,0.1913649152344338,-1.5756228252772522
1.907815437996673,4.4670624137917585,-0.018363824604339038,0.176631054108645,-1.5284457589602671
1.9045305037615072,4.43657797452283,-0.018135444675279066,0.16208493776835461,-1.4731431816876008
1.9012931862403541,4.408693382654345,-0.017834750004200157,0.14774386077035243,-1.4091933411787896
1.898117361905036,4.383370064721976,-0.01745218705489107,0.13362633847818764,-1.3360873640457345
1.8950187805525591,4.36056605139979,-0.01697649463929523,0.11975158732388277,-1.2533574004165358
1.8920154255541757,4.340235934414583,-0.01639411645385347,0.10613860140061974,-1.1606191785191664
1.8891280087756614,4.322331040620309,-0.01568829219630564,0.09280466298019943,-1.0576341326857164
1.8863806766434614,4.306799938360864,-0.014837620383694286,0.07976313990252698,-0.9443961610698225
1.8838020532039368,4.293589404871604,-0.0138137511665796,0.06702056553371881,-0.821244952142317
1.8814268285594005,4.2826459448131615,-0.012577633772711804,0.054573435115654545,-0.6889979177539729
1.8792982480623546,4.273917780764954,-0.011073260638911762,0.04240616541996604,-0.5490709430559395
1.877472170541309,4.267356796398378,-0.009216489594924552,0.03049366087530781,-0.4035225598498998
1.8760242722996487,4.262918925541602,-0.006871268645748113,0.018816015311107156,-0.2549199603193263
1.875065861695428,4.260558751130926,-0.0037777380678124363,0.007408144807510049,-0.10592517140180474
