x,y,v_x,v_y,omega
2.375,32.48,0.0,2.6666666666666665,-2.612244897959184
2.3745869121095358,32.004752763100214,-0.004589865449600999,2.6138581877753637,-2.4780652742391154
2.3733982408721634,31.538861040708632,-0.008617592743425776,2.5627165054644547,-2.353941524956092
2.371529351914831,31.08203253759677,-0.012147840115827205,2.513155751333992,-2.238879721158967
2.369064697012387,30.633989878701364,-0.015237214355769961,2.465096014170508,-2.1320030075599794
2.366079164063796,30.194469584976723,-0.01793537396191045,2.4184628049921955,-2.03253586507067
2.362639243428064,29.763221140088948,-0.020285966435109208,2.3731865826497454,-1.9397907353722716
2.3588040380240964,29.340006137812985,-0.022327426942309304,2.329202331527605,-1.8531566169730889
2.3546261401342736,28.92459750138802,-0.024093660722387302,2.2864491843053516,-1.7720893127114212
2.3501523941777838,28.516778767251385,-0.02561462768305432,2.2448700838794733,-1.6961030653576858
2.34542456168484,28.11634342654977,-0.026916844460765643,2.2044114794718106,-1.6247633637751664
2.3404799021866536,27.723094318653615,-0.028023816630196655,2.1650230527076975,-1.557680739272024
2.335351681642583,27.33684307160368,-0.02895641163725543,2.126657470069346,-1.4945054020719009
2.3300696182785305,26.95740958501937,-0.029733181296659306,2.089270158645235,-1.4349225926179026
2.3246602742476767,26.58462155151403,-0.03037064126838167,2.0528191025251945,-1.3786485427829012
2.319147400296148,26.218314013107268,-0.030883513748605786,2.0172646575499535,-1.3254269588396215
2.3135522395817234,25.858328949509417,-0.03128493863388904,1.9825693824261477,-1.2750259519230491
2.307893795920224,25.504514895488455,-0.031586657604994135,1.9486978844734053,-1.2272353532346538
2.302189070994818,25.156726584821985,-0.03179917489951777,1.9156166784874025,-1.1818643608247468
2.2964532744360184,24.814824618593175,-0.03193189797602945,1.8832940573882708,-1.1387394727935032
2.290700010146403,24.478675155814777,-0.031993260797477614,1.8516999734827837,-1.0977026684533353
2.2849414417890213,24.14814962456382,-0.03199083206232057,1.8208059293056618,-1.058609804622831
2.279188439969635,23.82312445198518,-0.03193141037530498,1.790584877123659,-1.021329198960344
2.2734507133099626,23.503480811678067,-0.03182110806549493,1.761011126288705,-0.9857403762444845
2.267736925323413,23.189104387117673,-0.03166542511839063,1.7320602577156796,-0.9517329568928348
2.2620547987591406,22.879885149887805,-0.031469314484637606,1.7037090448383643,-0.9192056698807064
2.2564112088686605,22.57571715161047,-0.031237239854027255,1.6759353804653796,-0.8880654746623148
2.2508122668666166,22.276498328556976,-0.030973226835353994,1.6487182090178893,-0.8582267787764583
2.2452633946993785,21.982130318013837,-0.03068090835617588,1.6220374636836465,-0.8296107395949069
2.23976939209838,21.692518285556137,-0.030363564988256778,1.5958740080685812,-0.8021446401917836
2.2343344967763894,21.40757076245281,-0.03002416081163883,1.5702095819683868,-0.7757613306158577
2.228962438521792,21.127199492492927,-0.029665375350554576,1.5450267509191755,-0.7503987269679574
2.2236564878561227,20.85131928758051,-0.029289632045768323,1.5203088592188054,-0.725999361650289
2.218419499841813,20.579847891498265,-0.028899123668782115,1.496039986139488,-0.702509978986588
2.2132559978332904,20.31270662028937,-0.02847312087036141,1.472196360626022,-0.6788619331593345
2.2081696247858864,20.04981943208478,-0.028042135211904223,1.4487723972027513,-0.6562145938940592
2.203161164335237,19.791112045425535,-0.027607425350863194,1.4257541212332894,-0.6345143891328978
2.198231185731689,19.536512641310075,-0.02717011468856134,1.403128146716276,-0.6137111545200211
2.193380066976276,19.285951760058346,-0.026731204816029898,1.3808816449695993,-0.5937578820216538
2.188608015660126,19.039362203634603,-0.026291587585635524,1.3590023152942374,-0.5746104895673857
2.183915087741314,18.79667894308563,-0.025852055956719383,1.3374783574721165,-0.5562276097512668
2.1793012044680267,18.557839030776325,-0.025413313746472706,1.3162984459645883,-0.5385703958328432
2.174766167634633,18.32278151712749,-0.024975984402349546,1.2954517056891708,-0.5216023434573477
2.1703096733374934,18.09144737158186,-0.02454061889919904,1.2749276892622274,-0.5052891266734374
2.1659313243798177,17.863779407543866,-0.0241077028527544,1.254716355604352,-0.48959844696856036
2.1616306414592845,17.63972221105626,-0.023677662930943782,1.234808049813504,-0.4744998941683213
2.1574070732583035,17.419222072993385,-0.02325087263551561,1.2151934842184628,-0.4599648181589034
2.1532600055444377,17.202226924565842,-0.022827657518548088,1.1958637205320295,-0.44596621049228174
2.1491887693775413,16.98868627594529,-0.022408299891408766,1.1768101530296562,-0.4324785950240181
2.1451926485103368,16.77855115783098,-0.021993043077532443,1.158024492684897,-0.4194779268140668
2.1412708860604184,16.571774065791494,-0.02158209525489562,1.1394987521982851,-0.40694149859331663
2.13742269052385,16.368308907226155,-0.021175632929197916,1.1212252318610187,-0.39484785416347434
2.1336472411935223,16.168110950800735,-0.020773804074440076,1.1031965061992055,-0.38317670815619054
2.1299436930391855,15.97113677822145,-0.0203767309737498,1.0854054113484162,-0.3719088716297553
2.1263111811004576,15.777344238220014,-0.019984512789893192,1.0678450331119773,-0.36102618302889367
2.122748824439099,15.586692402630554,-0.019597227891871443,1.0505086956597967,-0.35051144407573165
2.1192557296923136,15.399141524446687,-0.019214935961295858,1.03338995082762,-0.3403483601983801
2.115830994264813,15.214652997754051,-0.01883767989982107,1.0164825679794607,-0.3305214851382385
2.1124737091937207,15.033189319440027,-0.01846548755676263,0.9997805243985693,-0.32101616940844474
2.1091854874762195,14.85493099529268,-0.018070309304360346,0.9808675216830675,-0.3594613971587958
2.105964930624171,14.680067723026937,-0.017713655718400702,0.9620577257140689,-0.3990937213557802
2.1028052089322133,14.508581156620146,-0.017394363081129995,0.9433485676947244,-0.4398127437893848
2.0996997046404706,14.340453403520318,-0.017111240160453955,0.9247375778589061,-0.4815194370840219
2.0966420165747084,14.175667007044083,-0.016863071681350313,0.9062223829881493,-0.5241159287889028
2.0936259641938904,14.014204929190686,-0.016648621438847783,0.8878007042718224,-0.5675052861146843
2.090645591107835,13.856050533810173,-0.01646663507287973,0.8694703555116805,-0.6115913003762544
2.087695168124233,13.7011875700634,-0.01631584252269832,0.8512292416746888,-0.6562782701737901
2.0847691958813535,13.549600156110596,-0.016194960175962413,0.8330753578009134,-0.7014707823084315
2.0818624071202607,13.401272762963636,-0.016102692725065506,0.8150067882764066,-0.7470734893844923
2.07896976864834,13.25619019843516,-0.016037734740722984,0.7970217064844269,-0.7929908829964027
2.0760864830443513,13.114337591114875,-0.015998771970264426,0.77911837485206,-0.8391270613347737
2.073207990154137,12.97570037429998,-0.015984482365448277,0.7612951453134421,-0.8853854899711925
2.0703299684254755,12.840264269802386,-0.015993536841902533,0.7435504602153731,-0.931668754494611
2.0674483361304525,12.708015271550341,-0.01602459976946335,0.7258828536962512,-0.9778783035723205
2.064559252524128,12.578939628895924,-0.01607632918969783,0.7082909535750452,-1.023914180894292
2.0616591189892204,12.45302382953275,-0.016147376753718252,0.690773483793569,-1.0696747443297094
2.0587445802180877,12.330254581919682,-0.016236387369979097,0.6733292674627509,-1.115056370477371
2.0558125254854653,12.210618797096547,-0.016341998548046587,0.6559572305720686,-1.1599531426257073
2.0528600900683154,12.094103569766272,-0.016462839420289185,0.6386564064309951,-1.2042565199518673
2.0498846568727798,11.980696158504465,-0.016597529418995106,0.6214259409224041,-1.2478549855810708
2.046883858332734,11.870383964941993,-0.016744676581510923,0.6042650986606164,-1.290633670895739
2.04385557864985,11.76315451174801,-0.016902875450535607,0.5871732701614213,-1.3324739532276395
2.040797956451547,11.658995419220137,-0.017070704530608587,0.5701499801482642,-1.3732530237847067
2.0377093879508426,11.557894380264354,-0.017246723254997577,0.5531948971382097,-1.4128434223575193
2.034588530701037,11.459839133519289,-0.017429468409506457,0.5363078444736371,-1.4511125350201095
2.0314343080485866,11.36481743434744,-0.01761744995105222,0.519488812991344,-1.4879220506894428
2.0282459143995775,11.272817023378696,-0.017809146149048424,0.5027379755502505,-1.5231273720441612
2.0250228214291783,11.183825592248631,-0.018002997966499464,0.48605570367270495,-1.5565769759373025
2.0217647853795397,11.097830746124725,-0.01819740258504067,0.46944258659292093,-1.58811171808769
2.0184718556101537,11.014819962556885,-0.018390705963694187,0.45289945304972784,-1.6175640765283859
2.0151443845860135,10.934780546123527,-0.018581194304530754,0.43642739620981585,-1.6447573280702834
2.011783039513466,10.857699578270068,-0.018767084279329025,0.42002780216195146,-1.6695046519676828
2.0083888158619,10.783563861652144,-0.018946511849181693,0.40370238248166773,-1.6916081551440063
2.0049630530419944,10.712359858200248,-0.019117519483104563,0.3874532114282817,-1.7108578138871398
2.001507452548918,10.644073620015796,-0.019278041551077336,0.37128276839896146,-1.727030328056759
1.998024098922606,10.578690712090822,-0.019425887630168177,0.35519398632295196,-1.739887885855162
1.9945154839283274,10.516196125716554,-0.019558723417370152,0.3391903067244756,-1.7491768405294246
1.9909845344209962,10.456574181313233,-0.0196740488863104,0.3232757422013075,-1.754626305625913
1.987434644428539,10.399808419281946,-0.019769173252104234,0.30745494703519516,-1.7559466835297344
1.9838697120768218,10.345881477360656,-0.01984118621141767,0.2917332965346942,-1.7528281543408761
1.9802941820866446,10.294774952881571,-0.019886924790551885,0.27611697545514446,-1.744939170643677
1.9767130947106848,10.246469248308362,-0.01990293494233644,0.26061307535830464,-1.731925031318046
1.9731321421584929,10.20094339853214,-0.019885426748685174,0.24522969993306246,-1.7134066484725592
1.9695577338023222,10.158174878707491,-0.019830221653210817,0.22997607589637525,-1.688979682071451
1.965997071800982,10.118139392042583,-0.019732689472790655,0.21486266482481783,-1.6582143059283867
1.9624582392810415,10.080810638117345,-0.01958767185988098,0.199901267677832,-1.620655999477632
1.958950303970878,10.046160064287925,-0.019389387141937452,0.1851051082046215,-1.5758279505154353
1.9554834413539899,10.014156605983445,-0.019131308601262744,0.17048887295628878,-1.523235930071856
1.9520690832628271,9.984766426842661,-0.01880600352276804,0.15606867305240274,-1.4623768939284771
1.9487201008238264,9.95795267753373,-0.018404912466130866,0.1418618748246382,-1.3927531119735537
1.9454510355406138,9.933675303818365,-0.017918035125120198,0.12788672201275045,-1.3138943528394063
1.942278400310951,9.911890951032106,-0.017333467426688922,0.11416164227900026,-1.2253915357185454
1.9392210853504133,9.892553034037391,-0.01663669880150656,0.10070410210671485,-1.1269461424553424
1.9363009256215296,9.875612066785774,-0.015809520408312457,0.08752886735570176,-1.0184400588745655
1.9335435216914105,9.861016365379758,-0.01482830103745544,0.0746455927111278,-0.9000291652768874
1.9309794637321585,9.848713230252667,-0.013661231843122255,0.062055908700977574,-0.7722584482807383
1.9286462059965999,9.838650627386578,-0.012263854107529955,0.04975078981111479,-0.6361827091061287
1.9265910237917532,9.830779133531866,-0.010571503724100314,0.03771025301899639,-0.4934514949288731
1.9248759305242595,9.825053326674222,-0.008485088136939514,0.025909823177054432,-0.3462833273467951
1.9235869370941472,9.821430477854843,-0.005837061086529536,0.014344052593823382,-0.19723373153572185
1.9228578292200473,9.819859570541375,-0.002264137514580436,0.00311047311139556,-0.04869791692997369
