x,y,v_x,v_y,omega
2.375,32.48,0.0,2.358974358974359,-6.285714285714286
2.3738351738219032,31.989707566984713,-0.011093582648541284,2.3104773840283395,-5.95248846450523
2.3704854580976846,31.50942394346476,-0.020808471867825237,2.2636523637807455,-5.64520839281507
2.365223300454139,31.03880860349024,-0.029307315213558508,2.218398493119448,-5.3611936561070355
2.358289213804009,30.577541242016622,-0.03673160526387485,2.1746239971054884,-5.098098156961828
2.349895891930339,30.125319997184985,-0.04320479353298045,2.1322450012910403,-4.853861561519757
2.340231725995355,29.681859890797774,-0.048834882038296286,2.0911845833490736,-4.626668824634441
2.329463821174302,29.246891452549853,-0.053716592447922346,2.0513719713930163,-4.414916269739187
2.317740593905675,28.820159500060594,-0.05793319106281237,2.012741861838025,-4.217183022235428
2.305194015538773,28.401422051854958,-0.06155803147911114,1.975233835358509,-4.032206842074177
2.291941556490161,27.990449354484703,-0.06465586422195319,1.9387918538820168,-3.8588635917271947
2.2780878756878633,27.58702300820668,-0.0672839529427906,1.9033638249563385,-3.696149724053324
2.2637262925618127,27.1909351782263,-0.06949302921007025,1.868901222475819,-3.5431672909342646
2.2489400727372137,26.801987880608916,-0.07132811197658603,1.8353587548325985,-3.399111065541066
2.2338035536048384,26.419992333665334,-0.07282921309365567,1.8026940732015317,-3.263257444310572
2.218383131849712,26.04476836701195,-0.07403194647897757,1.7708675139735233,-3.134954853366614
2.2027381316398698,25.676143881653132,-0.07496805551951959,1.7398418703961687,-3.013615431393976
2.1869215693718145,25.313954355382915,-0.07566587084291106,1.7095821893201975,-2.8987077992879255
2.170980828530462,24.958042388593245,-0.07615070859853992,1.6800555896290392,-2.7897507581200314
2.1549582562629013,24.608257286236732,-0.07644521775918167,1.6512310994806276,-2.6863077825225186
2.1388916916188276,24.264454672247417,-0.07656968361294995,1.6230795099414121,-2.5879821976206103
2.122814934021225,23.926496133192472,-0.07654229350707613,1.5955732429628033,-2.4944129450149894
2.106758159354552,23.594248888326018,-0.0763793699850491,1.56868623195583,-2.4052708577288495
2.0907482900584786,23.267585483555976,-0.07609557569183799,1.5423938134731603,-2.320255376036739
2.074809324763902,22.94638350712583,-0.07570409378031982,1.5166726287187138,-2.239091646124998
2.058962632280575,22.63052532506328,-0.07521678701326712,1.4915005337817313,-2.161527951948461
2.0432511678969485,22.31990528369834,-0.07441620711651142,1.4667855744557912,-2.0812615574755324
2.0277129501318574,22.01442161048901,-0.07356681921769058,1.4425827418235493,-2.0048195877849833
2.012357494956791,21.713968775726023,-0.07267561102103878,1.4188728273477613,-1.9319729968831172
1.9971929279278346,21.418445184619024,-0.0717488368737823,1.395637564147452,-1.8625090780394438
1.9822261302188324,21.127752985745285,-0.07079209368814328,1.3728595679834092,-1.7962301114414627
1.96746286957649,20.84179789141749,-0.06981038861988091,1.3505222827575172,-1.7329521390211478
1.9529079178282354,20.560489009066032,-0.0688081994587341,1.3286099301135061,-1.6725038530627039
1.9385651563855117,20.28373868281318,-0.06778952856720442,1.3071074627708068,-1.6147255867627064
1.9244376710203357,20.011462344489747,-0.06675795110113897,1.286000521261886,-1.559468396275238
1.910527837048312,19.743578373410614,-0.06571665815623033,1.2652753937774601,-1.5065932249640854
1.896837395924183,19.480007964284315,-0.0646684954069012,1.2449189788539705,-1.4559701416251571
1.8833675241441328,19.220675002684906,-0.06361599773643674,1.2249187506641905,-1.4074776453552225
1.8701188952504881,18.965505947562164,-0.06256142029827229,1.2052627266952975,-1.361002030545033
1.8570917356475005,18.714429720309102,-0.06150676639684944,1.1859394376195542,-1.3164368061805738
1.8442858748600335,18.467377599945017,-0.06045381253140774,1.1669378991812591,-1.273682164258192
1.831700790799041,18.224283124007272,-0.059404130906616996,1.1482475859401131,-1.232644492668459
1.819335650537516,17.985081994777346,-0.05835910967933595,1.1298584067258821,-1.1932359283891518
1.8071893470472467,17.749711990495527,-0.057319971180371326,1.1117606816724006,-1.1553739472576707
1.7952605322993547,17.518112881245294,-0.05628778832336119,1.0939451207107667,-1.1189809869745069
1.7835476470895204,17.290226349212382,-0.05526349938934693,1.0764028034121715,-1.0839841003279722
1.7720489479113826,17.06599591304567,-0.05424792135482406,1.059125160080334,-1.0503146359315418
1.7607625311682902,16.845366856067017,-0.05324176191272181,1.0421039540020867,-1.0179079440333147
1.7496863549839015,16.628286158095698,-0.052245630319552004,1.0253312647724009,-0.9867031051962049
1.7388182588456478,16.414702430669795,-0.05126004718762502,1.0087994726171285,-0.9566426798609555
1.728155981291452,16.204565855462477,-0.05028545332852701,0.9925012436430592,-0.9276724769948975
1.7177057590182936,15.99798385497057,-0.049240473082506855,0.9749463800893879,-0.9292555995935836
1.7074712221749204,15.795075347858717,-0.048231306378188926,0.9575155924044728,-0.9331824322185035
1.6974448673188012,15.595814655820526,-0.04725778748961493,0.9402052841497368,-0.939321934907788
1.6876192372333025,15.40017683998511,-0.04631964189608607,0.9230120095208668,-0.9475469833474597
1.6779869427681537,15.208137669980523,-0.04541649586723463,0.9059324667132858,-0.9577340733460594
1.6685406827472518,15.019673594335512,-0.04454788528421411,0.8889634918106468,-0.9697630364848647
1.6592732620984303,14.834761712112417,-0.04371326375217848,0.8721020531712167,-0.9835167657475796
1.650177608348705,14.653379745668971,-0.04291201005473063,0.8553452462901688,-0.9988809499825716
1.6412467866182898,14.475506014451025,-0.04214343499684083,0.8386902891188459,-1.0157438160918504
1.6324740132373439,14.30111940972192,-0.041406787678835814,0.8221345178249995,-1.0339958778743545
1.6238526681008234,14.130199370137298,-0.04070126124040686,0.8056753829809121,-1.0535296904769524
1.6153763058690145,13.962725858076539,-0.0400259981101532,0.7893104461691759,-1.0742396094250395
1.60703866611419,13.798679336643904,-0.03938009479293791,0.7730373769987797,-1.0960215532158024
1.598833682507384,13.63804074725369,-0.03876260622426235,0.7568539505270738,-1.118772768461141
1.590755491133453,13.4807914877143,-0.03817254971793792,0.7407580450861717,-1.1423915965638423
1.582798438017364,13.32691339072613,-0.0376089085305261,0.7247476405154494,-1.1667772408997703
1.5749570859400115,13.176388702707477,-0.03707063506330796,0.7088208168050555,-1.1918295334604005
1.567226220617774,13.029200062861275,-0.03655665371990786,0.6929757531587909,-1.2174486998837464
1.559600856316497,12.885330482393318,-0.036065863435111666,0.6772107274884013,-1.2435351217673278
1.5520762409675846,12.74476332378973,-0.035597139887863394,0.6615241163553071,-1.2699890951139736
1.5446478608514274,12.60748228005751,-0.03514933740887178,0.6459143953801267,-1.2967105837095647
1.5373114449114738,12.473471353827364,-0.03472129059068605,0.6303801401450969,-1.3235989661709493
1.5300629687608762,12.342714836212057,-0.03431181560548086,0.6149200276197316,-1.3505527753317803
1.5228986584428255,12.215197285306669,-0.03391971123309744,0.5995328381458744,-1.3774694285536146
1.5158149940054457,12.09090350420875,-0.033543759599090964,0.5842174580247683,-1.4042449474589986
1.508808712952483,11.96981851842677,-0.033182726619601706,0.5689728827560087,-1.4307736654823124
1.5018768136320146,11.851927552533823,-0.03283536214676378,0.5537982209863599,-1.4569479215229708
1.495016558627074,11.737216005910525,-0.03250039980505209,0.538692699235538,-1.4826577378646484
1.4882254782144764,11.625669427405782,-0.03217655650540174,0.5236556674763175,-1.5077904803945106
1.481501373961302,11.517273488726694,-0.031862531620066345,0.5086866056578643,-1.5322304990197635
1.4748423225325147,11.41201395634883,-0.03155700579695616,0.4937851312741735,-1.5558587460380966
1.4682466797881415,11.309876661715165,-0.03125863938755016,0.47895100809405516,-1.5785523700782476
1.461713085254429,11.210847469465822,-0.030966070457331983,0.4641841561854042,-1.6001842830937056
1.4552404670605026,11.114912243410966,-0.030677912341967924,0.44948466338463355,-1.6206226977763487
1.4488280474404642,11.022056809925449,-0.030392750706016217,0.43485279838220503,-1.639730632671855
1.4424753489106947,10.932266918405517,-0.030109140053692213,0.42028902561714787,-1.6573653822454708
1.4361822012435983,10.845528198385015,-0.029825599632939015,0.4057940221971449,-1.673377949194173
1.4299487493723635,10.761826112860305,-0.02954060866453602,0.3913686970858012,-1.687612436470481
1.423775462376812,10.681145907319738,-0.029252600816908655,0.3770142128243507,-1.6999053968319637
1.41766314371844,10.60347255391478,-0.028959957834252446,0.36273201008001477,-1.7100851383401499
1.4116129429137987,10.52879069014616,-0.028661002209949427,0.34852383533540804,-1.7179709852173086
1.4056263688600468,10.457084551370748,-0.02835398877816431,0.3343917720494776,-1.7233724949897584
1.3997053050557073,10.388337896364892,-0.02803709507268714,0.3203382756253316,-1.726088635127255
1.3938520269945527,10.322533925111085,-0.027708410271642992,0.30636621250616364,-1.7259069257461261
1.38806922205282,10.259655187912003,-0.027365922506763625,0.29247890367556467,-1.7226025598243242
1.3823600122420823,10.19968348488781,-0.027007504262167963,0.27868017274530926,-1.7159375194058861
1.3767279802656516,10.142599754891698,-0.026630895513362257,0.26497439864624855,-1.7056597163321157
1.371177199400774,10.08838395290475,-0.026233684152137785,0.2513665726580284,-1.6915022003676157
1.365712267840226,10.037014915073819,-0.02581328309117614,0.23786235906512837,-1.6731824979332839
1.3603383482777216,9.988470210778914,-0.025366903218389976,0.22446815802919645,-1.650402173453737
1.3550612137310147,9.942725981524362,-0.02489152103596101,0.2111911682046297,-1.6228467459631204
1.3498873008946137,9.899756767134566,-0.02438383931071611,0.19803944503151513,-1.5901861507510113
1.3448237727472483,9.859535320835786,-0.023840238283239407,0.1850219482902136,-1.5520760157560052
1.3398785927807004,9.82203241651068,-0.023256713779121762,0.172148569091747,-1.5081601333429582
1.33506061418087,9.78721665398525,-0.02262879669545277,0.15943012162661302,-1.458074660168157
1.3303796887585153,9.755054271995466,-0.021951445422212362,0.1468782782760931,-1.4014547822063295
1.3258468026760815,9.72550898391216,-0.02121889822001388,0.13450541775538036,-1.337944847784938
1.3214742494823477,9.698541858838418,-0.02042446552983203,0.12232434485168718,-1.267213297746181
1.3172758563123457,9.674111280667134,-0.019560231327330924,0.11034782820814282,-1.188974079784865
1.3132672873362778,9.65217302991018,-0.018616616063790642,0.09858789328666087,-1.1030165297458836
1.3094664611283071,9.632680546018442,-0.017581728774024797,0.08705481044416848,-1.0092457079595203
1.3058941377549331,9.615585436887002,-0.016440398591441467,0.07575575271238688,-0.9077344182228216
1.3025747604216187,9.600838296714688,-0.015172718868695562,0.06469320130966971,-0.7987857536456535
1.299537681626123,9.588389852610977,-0.013751841088405735,0.053863409201858815,-0.6829997494497172
1.2968189800085481,9.578192348605715,-0.01214055526944985,0.04325567656255926,-0.5613284224229181
1.2944642289650883,9.570200837204894,-0.010285645144454103,0.03285395582621874,-0.43509079053285016
1.2925329859517152,9.56437358219949,-0.00810714545909905,0.022643710891905436,-0.305908705644624
1.2911071870027744,9.560669718709242,-0.005471892149861549,0.012631179491416258,-0.17552603751625545
1.2903127981742972,9.55903802096616,-0.002093715740397575,0.002908799014120167,-0.04550794007106074
