x,y,v_x,v_y,omega
2.375,32.48,0.0,3.641025641025641,-7.755102040816326
2.372161988648669,31.65529663120478,-0.02467835957679154,3.5303080006719045,-7.093391051988557
2.364193971142914,30.85533433997213,-0.04460874916890446,3.425885836133725,-6.517497971587675
2.352086065642944,30.078731928584233,-0.060677385613444566,3.327178610717573,-6.013185633114529
2.3366452496815984,29.324232812314023,-0.07359057926782099,3.233683269892958,-5.568998855550982
2.318532091388779,28.59068882822465,-0.08391514501756185,3.1449600700146347,-5.175644971218755
2.298289344840494,27.877046921957856,-0.09210873801100675,3.060621723609639,-4.825528965664451
2.276364406184127,27.18233805614954,-0.09854290247914234,2.9803249355931047,-4.512400412972692
2.2531270841501057,26.505667863441246,-0.10352076738190957,2.903763696652957,-4.231082442316755
2.2288837589077963,25.846208690810062,-0.10729075646425924,2.8306638914442903,-3.9772616775879808
2.2038887328343106,25.203192768969732,-0.11005729634866056,2.760778907167272,-3.7473240195023423
2.1783533810947713,24.575906302902037,-0.11198924051689939,2.6938860151604955,-3.5382252492085824
2.152453566363662,23.963684324942783,-0.1132265397536149,2.6297833583982713,-3.3473883277392655
2.1263356754000093,23.365906185407972,-0.11388555558249398,2.5682874201652925,-3.172621334763385
2.1001215551714054,22.781991580951193,-0.11406331597058526,2.5092308794588627,-3.012051487753249
2.0739125656015607,22.21139704004245,-0.11384094115850033,2.4524607806171543,-2.8640717791951342
2.047792919704379,21.65361279977856,-0.11328641446916368,2.397836960807981,-2.7272975806575706
2.0218324462186006,21.10816001981656,-0.1124568332332587,2.345230691035527,-2.6005311683149888
1.9960888822265543,20.57458828837697,-0.11140024495844873,2.2945234953956835,-2.4827325808363523
1.9706097816895598,20.052473382578754,-0.11015715101541546,2.245606120240981,-2.372995567008461
1.9454341089252658,19.541415251269942,-0.10876174258714162,2.1983776302704015,-2.2705276454565135
1.920593572716271,19.04103619332367,-0.10724292009976921,2.1527446127406784,-2.174633502895685
1.8961137461671527,18.550979208314672,-0.10562513684908598,2.1086204742940717,-2.0847011155088913
1.8720150090059842,18.070906499755583,-0.10392909933498767,2.0659248175240874,-2.000190101362078
1.848313342288862,17.600498113791602,-0.10217235037911897,2.024582886510553,-1.9206219084601175
1.8250210000525007,17.139450698532485,-0.10036975602402279,1.9845250722643453,-1.8455715192673334
1.8021470780929278,16.68747637112417,-0.09853391318965539,1.9456864704166836,-1.7746604129053751
1.779697996511966,16.244301681293326,-0.09667549186218782,1.9080064846341092,-1.7075505743167814
1.7576779097991007,15.80966666148873,-0.09480352303229271,1.871428470188468,-1.6439393781316731
1.7360890558723314,15.383323954933509,-0.0929256415483088,1.8358994129004145,-1.583555205860134
1.7149320535835602,14.965038013926382,-0.09104829139752804,1.8013696393354752,-1.5261536799463726
1.6942061566195656,14.554584361613742,-0.08917689959372908,1.7677925546874653,-1.471514418398323
1.6739094704331468,14.151748911220484,-0.08731602376643581,1.7351244052539023,-1.41943823011157
1.654039137768352,13.756327337393468,-0.08546947766656036,1.7033240628070887,-1.3697446843943613
1.6345914974570153,13.368124494892598,-0.08364043808419425,1.6723528285048432,-1.3222699991652471
1.6155622204274689,12.986953880372774,-0.08183153608577487,1.6421742542762268,-1.2768652013062323
1.5969464262532234,12.612637133446189,-0.08004493499461937,1.6127539798679842,-1.233394520085076
1.5787387830576374,12.245003573606738,-0.07828239714091324,1.5840595839533251,-1.1917339807075882
1.5609335931623818,11.883889769944592,-0.07654534107870085,1.5560604478914264,-1.1517701701620975
1.5435248665083559,11.529139140884947,-0.07483489069543765,1.5287276308881004,-1.113399151764504
1.52650638357578,11.18060158145617,-0.0731519174139171,1.5020337554490886,-1.0765255083572016
1.5098717492758458,10.838133115833369,-0.07149707649855493,1.4759529021404831,-1.0410614970829584
1.4936416838663584,10.501599523381639,-0.06963392706220302,1.4504261626571704,-1.0000251717111703
1.4778344489656488,10.17087179370331,-0.06782028946570774,1.4254671388935276,-0.9610665051299123
1.4624387454248982,9.845821918037608,-0.06605539349734131,1.4010535190690931,-0.9240535904560492
1.4474434624632972,9.526326888789463,-0.0643383713861457,1.3771641265669372,-0.8888644873046765
1.432837697781411,9.212268446770235,-0.06266827802155983,1.3537788475132921,-0.8553863500105965
1.4186107733687388,8.903532844461168,-0.061044108175590674,1.3308785638699148,-0.8235146422124534
1.4047522476460474,8.600010624087783,-0.059464811152159416,1.3084450915508339,-0.7931524282656064
1.3912519244924413,8.301596409400123,-0.057929303227024415,1.2864611231244838,-0.7642097331078661
1.3780998596295264,8.008188710149621,-0.056436478189625425,1.2649101747059677,-0.736602963207059
1.3652863647685245,7.719689738339888,-0.054985216253870636,1.243776536683036,-0.7102543820929048
1.3528020098691131,7.43600523540664,-0.053574391567097764,1.2230452279539143,-0.6850916347364419
1.3406376238097664,7.15704430955256,-0.05220287851417762,1.2027019533859051,-0.6610473157039327
1.3287842937272287,6.8827192825265975,-0.050869556986149374,1.1827330642311653,-0.6380585765922236
1.3172333632465167,6.612945545195039,-0.04957331675917226,1.1631255212606322,-0.6160667687602942
1.3059764297916363,6.347641421304175,-0.048313061109352386,1.1438668603990632,-0.5950171178169607
1.2950053411403206,6.086728038881937,-0.04708770977165265,1.1249451606638823,-0.5748584267157112
1.2843121913629183,5.830129208769343,-0.04589620133619347,1.1063490142282393,-0.5555428046515857
1.2738893162655751,5.577771309811965,-0.04473749516244344,1.0880674984446173,-0.5370254192579965
1.2637292884406046,5.329583180277673,-0.043610572880777486,1.0700901496796695,-0.5192642698686923
1.2538249120120557,5.085496015099764,-0.042514439541387616,1.0524069388239,-0.5022199798462328
1.244169217151626,4.845443268574595,-0.04144812446234879,1.035008248351484,-0.4858556061872955
1.2347554544289738,4.609360562170323,-0.040410681821582986,1.0178848508160805,-0.4701364648002645
1.2255770890508841,4.3771855971284985,-0.039401191031369916,1.0010278886780428,-0.45502997001479084
1.2166277950354663,4.148858071563307,-0.038418756928786525,0.9844288553670967,-0.440505487028922
1.2079100693546188,3.9244316453215085,-0.037387553339451735,0.9671052858659481,-0.44624715030518314
1.19942450955482,3.703974851232509,-0.03639992318053851,0.9499103149079572,-0.4544189304048086
1.1911611352916205,3.4874585580959874,-0.03545550519510807,0.9328400601922314,-0.46488644861506556
1.1831100619781931,3.274854508865868,-0.034553827965129735,0.9158908026783762,-0.4775198058062046
1.175261524881391,3.0661352840084213,-0.033694320702715046,0.899058978690731,-0.492193255846711
1.1676059008407187,2.8612742666072712,-0.03287632312921738,0.8823411726236109,-0.5087848931520593
1.1601337278118988,2.660245609080995,-0.03209909451269371,0.8657341102135743,-0.5271763529592718
1.1528357224211814,2.4630242013863572,-0.03136182192832711,0.8492346523485063,-0.5472525229894328
1.1457027957023143,2.26958564058679,-0.030663627800951433,0.8328397893868706,-0.5689012652201203
1.1387260671750725,2.0799062016714522,-0.030003576783758566,0.8165466359638972,-0.592013146539956
1.1318968774123457,1.893962809515159,-0.029380682022561583,0.8003524262647511,-0.6164811770985414
1.1252067992319326,1.7117330118737009,-0.028793910850595968,0.7842545097479303,-0.6422005551972011
1.1186476476393201,1.5331949533125808,-0.02824218995472944,0.7682503473052781,-0.6690684175893802
1.1122114886387664,1.3583273499699402,-0.02772441005008506,0.7523375078481273,-0.6969835940743313
1.1058906470219172,1.1871094650564977,-0.027239430096429977,0.7365136653122377,-0.7258463652738376
1.0996777132359132,1.0195210849966898,-0.026786081086212193,0.7207765960773996,-0.7555582224790767
1.0935655494264556,0.8555424961156888,-0.02636316943081032,0.7051241768008832,-0.786021628443096
1.0875472947455502,0.6951544617768377,-0.02596947996836655,0.6895543826673756,-0.8171397779734663
1.0816163700086388,0.5383381998729924,-0.025603778613471847,0.6740652860617008,-0.8488163571490857
1.075766481781507,0.3850753605733246,-0.025264814665934835,0.6586550556745279,-0.8809552999443234
1.0699916259737452,0.2353480042243703,-0.024951322792861965,0.6433219560554951,-0.9134605409921147
1.0642860910126095,0.08913857930021862,-0.02466202469527494,0.6280643476327888,-0.9462357631545254
1.058644460668895,-0.05357009970823157,-0.02439563046745947,0.6128806872232834,-0.9791841384938961
1.0530616166049107,-0.1927948745811534,-0.024150839654142768,0.5977695290629771,-1.012208061149032
1.0475327407138335,-0.3285522659586775,-0.023926342007398602,0.5827295263937374,-1.0452088705180445
1.0420533173196713,-0.46085849636364173,-0.02372081794183866,0.5677594336494245,-1.078086563031312
1.0366191353078007,-0.5897295138019558,-0.02353293868312377,0.5528581092924248,-1.1107394906635348
1.0312262902576184,-0.7151810160970626,-0.023361366101070435,0.5380245193606541,-1.1430640441819515
1.025871186651318,-0.8372284761300008,-0.023204752214584616,0.5232577417953534,-1.174954318957503
1.0205505402362451,-0.9558871681741152,-0.0230617383512664,0.5085569716317114,-1.2063017609763698
1.0152613806227804,-1.071172195533748,-0.022930953939730707,0.4939215271477206,-1.236994790480519
1.0100010542053597,-1.1830985197201613,-0.022811014907405315,0.4793508570819795,-1.2669184004380387
1.004767227501176,-1.2916809914251886,-0.022700521650713835,0.4648445490486651,-1.2959537267984969
0.9995578910094705,-1.396934383585048,-0.022598056538030244,0.45040233929793433,-1.3239775872282733
0.9943713637042706,-1.4988734268634971,-0.022502180898490574,0.4360241239929011,-1.3508619847511232
0.9892062982851677,-1.597512847925728,-0.02241143144153388,0.42170997220041406,-1.3764735724489008
0.9840616873244736,-1.6928674109233555,-0.022324316042761503,0.40746014082245047,-1.4006730751202714
0.9789368704651227,-1.784951962666696,-0.0222393088211596,0.3932750917283163,-1.4233146635725475
0.9738315428423101,-1.8737814820247465,-0.02215484442068817,0.3791555113851492,-1.4442452770653658
0.9687457649234601,-1.9593711341664601,-0.022069311395398174,0.36510233332539266,-1.4633038893819295
0.9636799739861512,-2.0417363303398517,-0.021981044581201287,0.35111676383450635,-1.4803207141433452
0.9586349974826687,-2.120892793979067,-0.021888316318648043,0.33720031128912414,-1.495116345405445
0.9536120685736096,-2.1968566340339706,-0.02178932636882152,0.3233548196231043,-1.507500830432906
0.9486128441523656,-2.269644426531549,-0.021682190337648958,0.3095825064427662,-1.5172726730466883
0.9436394257285732,-2.339273305502367,-0.02156492639098153,0.2958860063469313,-1.5242177683989104
0.9386943835934625,-2.405761064534815,-0.021435440001285336,0.28226842002218455,-1.528108273895944
0.9337807847558186,-2.4691262703486245,-0.021291506413008535,0.26873336966312017,-1.5287014269220693
0.9289022252175145,-2.5293883898962974,-0.021130750441809343,0.255285061186229,-1.5257383289670332
0.9240628672574953,-2.586567932588167,-0.020950623123575755,0.24192835352568925,-1.5189427291208795
0.9192674825207063,-2.6406866092640016,-0.020748374587633584,0.22866883495982487,-1.5080198596923864
0.914521501876266,-2.691767509454486,-0.020521022320543474,0.21551290582700494,-1.4926554058797894
0.9098310732370185,-2.73983529821583,-0.020265313672913694,0.20246786601075145,-1.4725147342548977
0.9052031288523075,-2.7849164332668295,-0.01997768097674703,0.1895420039979657,-1.4472425675036078
0.9006454640490409,-2.827039402137501,-0.019654186877744027,0.17674468183394915,-1.4164633842642593
0.8961668300872674,-2.8662349772921942,-0.019290456268111784,0.16408640646770348,-1.3797829555146377
0.8917770448542377,-2.902536484336302,-0.018881589236493686,0.15157887217669566,-1.3367916198729366
0.8874871267737587,-2.9359800739047586,-0.018422046245931273,0.13923495015770568,-1.2870701715490698
0.8833094599320668,-2.9666049809080803,-0.017905491507912184,0.12706858900164186,-1.2301996122032985
0.8792580026357257,-2.9944537445155177,-0.017324571938530882,0.11509457280217406,-1.1657765238340188
0.8753485584285459,-3.019572347542031,-0.016670595080424497,0.10332806221099616,-1.0934364521401752
0.8715991396229912,-3.0420102141122953,-0.015933046707007063,0.09178382100866857,-1.012888371746076
0.868030471205671,-3.0618199805425874,-0.015098852574038058,0.0804750175156235,-0.9239637721263142
0.8646667115353155,-3.07905693167411,-0.014151231516010328,0.06941151406285083,-0.8266834854805583
0.8615365118380451,-3.093777988859024,-0.01306789628634086,0.05859767884947109,-0.7213426500014084
0.8586746102065199,-3.1060401816873906,-0.01181820485735591,0.04803008487544224,-0.6086066745674686
0.8561242836927374,-3.1158987014818393,-0.010358547436405607,0.03769617420669387,-0.48959571486693954
0.85394124974622,-3.1234050363910626,-0.008624356446355157,0.02757630326481058,-0.3659116490502615
0.8522003668746709,-3.12860654572151,-0.006513755480158694,0.017654212652141493,-0.2395392314560423
0.8510095387405203,-3.131551042735474,-0.003841271773323963,0.007950109208440763,-0.11255454290537181
