x,y,v_x,v_y,omega
2.375,32.48,0.0,2.5128205128205128,-6.530612244897959
2.3736954415221914,31.957951107608142,-0.012424366455322326,2.4590737004352428,-6.165145558009288
2.3699517156344,31.44698231800333,-0.023230165809353373,2.407295724372494,-5.829932333596093
2.3640875895691744,30.94669327335984,-0.032618653859462714,2.3573618436607537,-5.521667254982452
2.3563824611698916,30.456708579782276,-0.04076352137180242,2.3091590475541377,-5.237479575322945
2.3470816999468167,29.976675505513906,-0.04781515694319651,2.2625845169065326,-4.974866745208922
2.3364011716142348,29.506261975071148,-0.0539041605099652,2.217544344453048,-4.731639628283681
2.324531087737428,29.045154810375546,-0.059144257364384854,2.173952462171741,-4.505877015794706
2.311639294208456,28.593058179607436,-0.06363472862582881,2.1317297356197886,-4.295887657829052
2.2978740905804216,28.149692222002273,-0.06746244878401772,2.0908031939532012,-4.100178411338654
2.2833666552697944,27.714791822679583,-0.07070360179338595,2.0511053710247857,-3.9174273964713815
2.268233138160533,27.288105516225,-0.07342513258053174,2.0125737380664894,-3.746461276913183
2.252576471386755,26.86939450142601,-0.07568597955069047,1.9751502124000546,-3.5862359539312183
2.2364879404194897,26.45843175250806,-0.07753812489945208,1.9387807296756996,-3.4358200999254263
2.220048550577747,26.05500121459183,-0.07902749264095493,1.9034148695264899,-3.294381064589582
2.2033302183758403,25.658897073019055,-0.08019471880577636,1.8690055264047045,-3.161172771947297
2.1863968124407442,25.269923087766884,-0.08107581390942147,1.835508618854062,-3.035525294567199
2.1693050648789547,24.887891985463224,-0.08170273429810052,1.802882831656974,-2.9168358459473986
2.152105370781317,24.51262490258339,-0.08210387615559013,1.7710893862462058,-2.804560976260962
2.134842490900555,24.143950874296202,-0.08230450366119303,1.7400918355365587,-2.6982097925698527
2.117556170320057,23.78170636416973,-0.08232712091497467,1.7098558799536412,-2.5973380539418955
2.100281684074637,23.42573483057052,-0.08219179570807679,1.6803492019435944,-2.5015430159631404
2.083050319120842,23.075886326116805,-0.08191644194711628,1.6515413166631987,-2.4104589189591197
2.065889800734866,22.732017126993476,-0.08151706649074948,1.6234034368923176,-2.3237530306356984
2.0488246702986705,22.39398938931787,-0.0810079852825389,1.595908350494407,-2.2411221674673514
2.031876620485851,22.061670830072313,-0.08040201293478928,1.5690303089870856,-2.1622896305102737
2.015064793050461,21.734934430400514,-0.07971062930702134,1.5427449259824055,-2.087002500810031
1.9984060437317461,21.413658159307992,-0.07894412610931027,1.5170290844225875,-2.015029247538393
1.9819151781968358,21.09772471601751,-0.07811173612793107,1.4918608516772238,-1.9461576086981602
1.9656293280687323,20.787028251879832,-0.0769915984254359,1.467153092491154,-1.8739257148570505
1.9495813055143023,20.481466767498183,-0.07584671161675349,1.4429562825721731,-1.8051315358190185
1.933775764883856,20.180934967539585,-0.07468224676844795,1.4192513360811492,-1.739569447714128
1.9182163359637847,19.88533146719982,-0.0735027905655652,1.3960200957261666,-1.677048471739461
1.902905740134931,19.594558603244828,-0.07231240780447169,1.3732452752737454,-1.6173910647112777
1.8878458941328402,19.30852225667123,-0.07111469697734556,1.3509104063795663,-1.5604320229863848
1.873038002775741,19.02713168611929,-0.0699128397569316,1.328999789353162,-1.5060174878714174
1.858482641866902,18.750299371248538,-0.06870964508915317,1.3074984475111402,-1.454004042015102
1.8441798323386063,18.47794086535494,-0.06750758851366338,1.2863920848088315,-1.4042578874802012
1.8301291065827412,18.209974656570513,-0.06630884725647988,1.2656670464714397,-1.356654097242914
1.8163295678056623,17.94632203704181,-0.06511533157284281,1.2453102823733564,-1.3110759327885233
1.8027799431506115,17.686906979534037,-0.06392871276097521,1.2253093129387689,-1.2674142212805624
1.7894786312478896,17.43165602095283,-0.06275044821732709,1.205652197358425,-1.225566786491654
1.7764237447797555,17.180498152316833,-0.061581803860142025,1.1863275039367736,-1.1854379283102758
1.763613148582397,16.93336471475137,-0.06042387420993795,1.167324282400959,-1.1469379461900027
1.7510444937502427,16.690189301107317,-0.0592776003820071,1.148632038018592,-1.109982702395724
1.7387152481573804,16.45090766283994,-0.05814378621668206,1.130240707385019,-1.0744932213330836
1.7266227237661576,16.215457621810422,-0.05702311274734464,1.1121406357532235,-1.0403953216299509
1.7147641010534185,15.983778986698319,-0.05591615118350514,1.0943225557906158,-1.0076192779782105
1.7031364508496836,15.755813473736321,-0.05482337456635045,1.0767775676569928,-0.9760995100457999
1.6917367538553736,15.531504631500102,-0.053745168236603,1.0594971203069854,-0.9457742960373222
1.68056191807043,15.310797769505381,-0.05268183923904935,1.0424729939284578,-0.9165855087206839
1.669608794349015,15.093639890382146,-0.05163362477442769,1.0256972834356994,-0.8884783719505152
1.6588741902689854,14.879979625412393,-0.05060069979728208,1.009162382942922,-0.8614012359096582
1.648354882486262,14.669767173232675,-0.04958318384770306,0.9928609711496214,-0.8353053694603831
1.6380565770441007,14.463107093148718,-0.048495915601451535,0.9753302677452063,-0.8392148107691857
1.6279824430163867,14.260115576679233,-0.04744821799582416,0.9579222700594004,-0.8454112380933435
1.6181242095014756,14.060767227364998,-0.04643972024142422,0.940633437695219,-0.8537659371707461
1.6084736936531931,13.865037376764441,-0.04546995450412277,0.9234603775481901,-0.8641540217581525
1.599022820123595,13.672902054201689,-0.044538364825382766,0.9063998373351646,-0.8764541428181707
1.589763638708526,13.484337957819886,-0.043644315318131725,0.8894486996344081,-0.890548208627968
1.580688340342583,13.299322426834959,-0.04278709769084916,0.8726039764125237,-0.9063211146294408
1.571789271579481,13.117833414889876,-0.041965938148219,0.8558628040168478,-0.923660481888383
1.5630589476840868,12.939849464413538,-0.04118000371267698,0.8392224386149385,-0.9424564030700107
1.5544900644534758,12.765349681892072,-0.040428408007426586,0.8226802520656781,-0.9626011948703052
1.5460755088762086,12.594313713963192,-0.03971021653797646,0.806233728209355,-0.9839891558672634
1.5378083687315973,12.426721724246683,-0.03902445150593919,0.7898804595669191,-1.006516328773416
1.5296819412239753,12.262554370825804,-0.038370096185701176,0.7736181444414383,-1.030080266080962
1.5216897407408583,12.101792784295597,-0.03774609889160109,0.7574445844176667,-1.0545797980935818
1.5138255058183967,11.944418546294589,-0.03715137656041631,0.7413576822585899,-1.0799148023343377
1.5060832053925737,11.790413668436344,-0.03658481797123074,0.7253554402008839,-1.105985973306937
1.4984570444102718,11.639760571556533,-0.03604528662211972,0.709435958654452,-1.1326945915678015
1.490941468870495,11.492442065189781,-0.03553162328051679,0.6935974353146218,-1.1599422910385992
1.4835311703627727,11.348441327188322,-0.03504264822159991,0.6778381646992588,-1.1876308234528372
1.4762210901670194,11.207741883391563,-0.0345771631665279,0.6621565381270134,-1.215661818785406
1.4690064229769,11.070327587251715,-0.03413395292984807,0.6465510441572463,-1.243936540460196
1.4618826203070658,10.936182599315927,-0.03371178678285803,0.6310202695169257,-1.2723556340676332
1.4548453936434689,10.805291366459421,-0.03330941953711221,0.615562900545034,-1.3008188682507502
1.4478907173953652,10.677638600757152,-0.03292559234958909,0.6001777251908567,-1.3292248663347859
1.4410148317075924,10.553209257873164,-0.03255903324824807,0.5848636356090288,-1.357470827180913
1.4342142451922801,10.431988514837059,-0.032208457373772814,0.5696196314015084,-1.3854522336393018
1.4274857376403647,10.313961747065594,-0.03187256693018514,0.554444823564833,-1.41306254686025
1.4208263627751587,10.199114504474213,-0.03155005083368032,0.5393384392102377,-1.440192884594877
1.4142334511128514,10.087432486508003,-0.03123958404543694,0.5242998271346098,-1.4667316814796088
1.407704612998205,9.978901515904013,-0.030939826570242777,0.5093284643319781,-1.4925643291529087
1.4012377418879876,9.87350751097657,-0.030649422098495586,0.49442396354845386,-1.5175727939009545
1.3948310179598815,9.77123645619415,-0.030366996264419195,0.4795860819984182,-1.5416352093752805
1.3884829121308666,9.672074370789787,-0.03009115448810481,0.46481473137645785,-1.5646254417759817
1.3821921905764842,9.576007275116844,-0.029820479363153775,0.45010998931822305,-1.5864126247580972
1.3759579198511123,9.483021154427597,-0.029553527545151975,0.43547211248412876,-1.6068606612097165
1.3697794727195463,9.393101919713182,-0.02928882608881072,0.4209015514626662,-1.6258276889875505
1.363656534822036,9.306235365199534,-0.029024868173191932,0.4063989677149324,-1.6431655077069345
1.3575891123086499,9.222407122044572,-0.028760108144771132,0.3919652528085034,-1.658718963807934
1.3515775405947765,9.141602607726966,-0.028492955796878865,0.3776015502163299,-1.672325291413239
1.3456224944080613,9.063806970555959,-0.02822176979088641,0.3633092799837513,-1.6838134070357687
1.3397249993185958,8.989005028665495,-0.02794485010878374,0.34909016659207504,-1.6930031570956265
1.3338864449693648,8.917181202784757,-0.027660429407702424,0.33494627036732455,-1.6997045186240685
1.3281086002536155,8.84831944200294,-0.027366663123242273,0.320880022792847,-1.7037167556875927
1.3223936307211481,8.782403141671605,-0.027061618138351742,0.3068942660769956,-1.7048275372699309
1.31674411853812,8.719415052517999,-0.026743259795250298,0.2929922972906817,-1.7028120270437181
1.3111630853772132,8.659337179985226,-0.02640943697529026,0.2791779173071407,-1.6974319622685436
1.3056540186803804,8.602150672782635,-0.026057864899307743,0.2654554846222815,-1.6884347488461717
1.3002209018200652,8.547835699640867,-0.0256861051989327,0.25182997387074385,-1.6755526135877272
1.2948682487946739,8.49637131334984,-0.025291542661936377,0.23830703842473408,-1.658501874752013
1.2896011442422306,8.447735301357419,-0.02487135783752305,0.2248930757887937,-1.6369824203612184
1.284425289761288,8.40190402258559,-0.024422494361930634,0.2115952934667003,-1.6106775241338542
1.279347057819463,8.358852230773572,-0.023941619369735743,0.1984217714096795,-1.5792541858634013
1.274373554953155,8.318552885718962,-0.023425074595103488,0.18538151482468485,-1.5423642632071155
1.2695126965890808,8.280976955452605,-0.02286881458655385,0.17248448771203595,-1.4996467737214383
1.2647732967627838,8.246093214918925,-0.022268326616274068,0.15974161260870653,-1.4507319003884032
1.2601651774502105,8.213868050502228,-0.02161852397966283,0.14716471516935994,-1.39524744312259
1.255699304447059,8.184265285194407,-0.02091359985987514,0.13476638300036223,-1.332828733828412
1.2513879601656859,8.157246046846907,-0.020146821867488878,0.12255969649962783,-1.2631333756073533
1.2472449690479939,8.132768712199105,-0.019310236396244202,0.11055777633657554,-1.1858625532681422
1.2432859995431917,8.110788972157032,-0.01839423507806248,0.09877308120699792,-1.1007910040782585
1.2395289793057565,8.09126007770642,-0.01738691004036814,0.08721638975122359,-1.0078078108384603
1.2359946797018218,8.07413333643348,-0.0162730861875813,0.07589543189581853,-0.906969504042475
1.232707555360724,8.059358926363597,-0.015032859918110703,0.06481323543640971,-0.7985646465075851
1.2296969706266596,8.046887055521811,-0.0136393756444087,0.05396648686632449,-0.6831837687703078
1.226999022299106,8.036669385066574,-0.01205537033229216,0.04334466032639822,-0.5617788765097614
1.2246593238321668,8.028660392269039,-0.010227472209985676,0.03293146155488487,-0.4356831721657897
1.2227375229101813,8.022817872645465,-0.008075393713686093,0.022711582479137765,-0.3065494644143709
1.2213157332088425,8.019100707065927,-0.005465460584780505,0.01268999446884595,-0.1761663240661581
1.2205201890989608,8.017457733240121,-0.002111149985521193,0.0029573753007474755,-0.04614501759514206
