x,y,v_x,v_y,omega
2.375,32.48,0.0,3.282051282051282,-6.040816326530612
2.3738067643842764,31.89598201237552,-0.013258173508041884,3.2070374693318096,-5.66847686177951
2.370397157150147,31.325198116025373,-0.024626351315614615,3.1350058234475755,-5.330410936437108
2.3650881518359412,30.767129049614113,-0.0343625966200045,3.06576158112198,-5.02250979285363
2.358153725289652,30.221288977315385,-0.042686587227653394,2.9991281110861263,-4.7412501349706755
2.3498311970739096,29.68722243283504,-0.04978594850281809,2.9349446053621655,-4.483598538980333
2.3403265335015795,29.164501644663815,-0.05582142452307227,2.873064152095859,-4.246933432418586
2.3298188040892924,28.652724180802494,-0.06093112450234316,2.813352113029927,-4.0289810442304255
2.3184639403835297,28.15151086343634,-0.0652340277839073,2.7556847465940426,-3.8277625431752895
2.306397917742186,27.660503913465593,-0.06883289045324557,2.6999480308586965,-3.6415501939418733
2.2937394576488623,27.179365292139128,-0.07181666613923925,2.6460366505464776,-3.4688308246130126
2.280592329973557,26.707775212806155,-0.07426253025304194,2.5938531198199013,-3.3082752545562664
2.267047320149043,26.245430800374344,-0.07623757890822459,2.5433070183112916,-3.158712606217394
2.2531839146702106,25.792044879720503,-0.07780025974546693,2.4943143222869466,-3.0191086377743837
2.2390717490135303,25.347344877249736,-0.07900158088431547,2.446796816277152,-2.8885474008780223
2.224771854535997,24.91107182219698,-0.07988613553272181,2.4006815731979185,-2.7662156596281577
2.210337734779414,24.48297943622856,-0.08049297287375574,2.355900493117825,-2.6513896116170645
2.195816296591871,24.062833301521493,-0.08085634032116665,2.312389892516278,-2.543423535409753
2.1812486573618166,23.650410098843732,-0.08100631779054684,2.2700901372366253,-2.4417400558497384
2.1666708462669915,23.245496908283442,-0.08096936104084622,2.2289453134332713,-2.345821772611427
2.1521144146330795,22.847890566221203,-0.08076876822484319,2.1889029317026947,-2.255204041186156
2.1376069681659833,22.457397072939415,-0.08042508140955826,2.1499136603171833,-2.1694687310944127
2.1231726318798088,22.07383104594364,-0.07995643288127036,2.1119310840803327,-2.088238815203539
2.108832456919947,21.697015214652552,-0.0793788444505295,2.0749114858206354,-2.0111736678849534
2.0946047771205563,21.326779952612853,-0.07870648665380832,2.0388136479538295,-1.9379649693817147
2.0805055219925515,20.962962843826745,-0.07795190365735562,2.003598671891823,-1.868333129979195
2.066548491874698,20.605408280153327,-0.07712620876323975,1.969229813368369,-1.802024161017954
2.052745600166274,20.25396708707025,-0.07623925466369302,1.9356723319991205,-1.738806930969544
2.0391070868700987,19.90849617536596,-0.07529978196047715,1.9028933536040986,-1.678470754123187
2.0256417070891377,19.56885821658156,-0.07431554893908765,1.8708617440003499,-1.6208232672347036
2.012356897621538,19.234921340240124,-0.07329344514535399,1.8395479931267202,-1.5656885560363474
1.9992589243738705,18.90655885109413,-0.0722395909398422,1.8089241084954428,-1.5129054990146107
1.9863530129490448,18.58364896479234,-0.07115942489155438,1.7789635170799978,-1.462326300509757
1.9736434644541734,18.266074560518796,-0.07005778060701576,1.7496409748482695,-1.4138151891206339
1.961133758306607,17.953722949291148,-0.06893895436594338,1.7209324832366908,-1.36724726073005
1.9488266435867385,17.646485656725538,-0.06780676474370782,1.6928152119367452,-1.3225074482974541
1.93672422028836,17.344258219182397,-0.06666460523827407,1.6652674274314907,-1.2794896029775085
1.9248280116466505,17.046939992303543,-0.06551549078072146,1.6382684267779952,-1.238095673182235
1.9131390285762824,16.754433971037066,-0.0643620988900352,1.6117984761828619,-1.1982349699661339
1.9016578271243438,16.46664662032391,-0.06320680613150433,1.585838753963313,-1.1598235086241886
1.8903845597319062,16.183487715689836,-0.06205172045113578,1.5603712975263933,-1.1227834176904636
1.8793190210017607,15.904870193049362,-0.06089870988381494,1.5353789540344231,-1.0870424076422585
1.8684606885860373,15.630710007085181,-0.05974942806866989,1.5108453344564652,-1.0525332925784947
1.857808759734385,15.360925997618061,-0.058605336949688086,1.4867547707337514,-1.0191935589738765
1.8473681003349216,15.095442034426462,-0.05740198971101657,1.4630670425062389,-0.9850164797592502
1.8371423555589996,14.834184499806856,-0.05621739668811625,1.4397944532671476,-0.9522757811878313
1.8271281160836539,14.577079912743066,-0.055051930815726395,1.4169231807749763,-0.920895022321573
1.8173219144299249,14.324057227754835,-0.05390586533681709,1.3944399857609444,-0.890802598243288
1.807720241821224,14.0750477327651,-0.05277938587097057,1.3723321807916846,-0.8619313850616097
1.7983195629903197,13.829984952393659,-0.05167260113907684,1.3505876011132127,-0.8342184144702516
1.7891163291631647,13.588804556333855,-0.050585552495979624,1.3291945773290614,-0.8076045751150169
1.7801069894220887,13.351444272494223,-0.04951822240486298,1.3081419097779456,-0.7820343383033556
1.7712880006282132,13.117843804610324,-0.04847054197153364,1.287418844487616,-0.7574555058411542
1.7626558360629014,12.887944754053176,-0.04744239764304063,1.2670150505917805,-0.7338189780036989
1.7542069929303548,12.661690545580356,-0.046433637163032525,1.2469205991062418,-0.7110785398456634
1.7459379988477717,12.439026356793601,-0.04544407486566905,1.2271259429688093,-0.6891906642314456
1.7378454174356082,12.219899051083441,-0.04447349638059204,1.2076218982551894,-0.6681143301247073
1.7299258531081616,12.004257113856372,-0.04352166281325909,1.1883996264900132,-0.6478108548167757
1.722175955153774,11.792050591854206,-0.042588314457713584,1.1694506179784965,-0.6282437388995538
1.7145924211842563,11.583231035388042,-0.04167317409248489,1.1507666760900008,-0.6093785229014576
1.7071720000245116,11.377751443321237,-0.04077594990467784,1.132339902430042,-0.5911826546061215
1.699911494105681,11.175566210646743,-0.039896338082329896,1.1141626828421038,-0.5736253661644962
1.6928077614183077,10.976631078514302,-0.039034025110707304,1.096227674185026,-0.5566775601926471
1.6858577170759563,10.78090308657243,-0.03818868980430942,1.0785277918357685,-0.5403117041210572
1.6790583345343082,10.588340527498815,-0.037360005102892085,1.0610561978710489,-0.5245017321274281
1.67240664650594,10.398902903600792,-0.03654763965675366,1.0438062898847427,-0.5092229540446538
1.6658997456066897,10.21255088537507,-0.03575125922380495,1.026771690401049,-0.49445197068949537
1.6595347847656798,10.029246271922808,-0.03497052789852588,1.0099462368462837,-0.48016659510614007
1.653308977427644,9.848951953122612,-0.03420510919076213,0.9933239720447908,-0.4663457792628145
1.6472261223504971,9.671855238438855,-0.03338216944420256,0.9744173022191707,-0.5024368917557552
1.641286854346034,9.498152389116054,-0.03260969727205678,0.9556143569230436,-0.539753472153865
1.6354822429128753,9.327824966855527,-0.03188598531859245,0.9369125570828308,-0.5781909894496352
1.629803665329011,9.16085498833844,-0.031209321168788138,0.9183094264403493,-0.6176464097368868
1.6242428073505843,8.997224906949903,-0.030577989702619972,0.8998025889878242,-0.6580179658742049
1.6187916635139703,8.83691759493156,-0.02999027514864552,0.8813897667715319,-0.6992049284264275
1.613442537093709,8.679916325896283,-0.02944446285425815,0.8630687780648867,-0.7411073768685646
1.6081880397659454,8.526204757638116,-0.028938840787562047,0.8448375359147423,-0.7836259700135852
1.6030210910245553,8.375766915169685,-0.02847170078343812,0.826694047067819,-0.8266617145940829
1.5979349173950848,8.228587173917703,-0.02804133954401151,0.8086364112875326,-0.8701157308874595
1.5929230514900006,8.084650243005061,-0.0276460594013684,0.7906628210751464,-0.9138890142243262
1.5879793309475594,7.943941148545115,-0.02728416884797851,0.7727715618131492,-0.9578821911596588
1.5830978972958363,7.806445216870149,-0.026953982837833873,0.7549610123531425,-1.0019952690150569
1.5782731947831405,7.6721480576115795,-0.02665382285878565,0.7372296460753838,-1.0461273774173725
1.573499969216197,7.541035546544066,-0.026382016773918795,0.7195760324525518,-1.0901765003630084
1.5687732668481131,7.413093808099262,-0.026136898427015946,0.7019988391563871,-1.134039197227273
1.5640884333593044,7.288309197447443,-0.025916807004190856,0.6844968347527184,-1.1776103110131726
1.559441112976275,7.166668282036266,-0.025720086140577754,0.6670688920381481,-1.220782661992731
1.5548272477754481,7.048157822465587,-0.025545082757501943,0.6497139920804877,-1.2634467247351477
1.5502430772222127,6.932764752565188,-0.025390145611779026,0.6324312290350731,-1.3054902863386921
1.545685137999035,6.82047615852818,-0.02525362353463985,0.6152198158205524,-1.3467980834861988
1.54115026418093,6.711279256936756,-0.025133863333193174,0.5980790907508418,-1.3872514157266538
1.5366355878219404,6.605161371498035,-0.025029207322247258,0.58100852523494,-1.426727732147477
1.5321385400225611,6.502109908286279,-0.024937990448634886,0.5640077326734715,-1.4651001883442933
1.527656852555439,6.402112329262621,-0.024858536963831845,0.5470764787004854,-1.5022371703191078
1.5231885601352773,6.3051561238148395,-0.02478915659352077,0.5302146929415315,-1.538001781647554
1.5187320034288367,6.211228778026477,-0.024728140144707783,0.5134224824847083,-1.5722512899577508
1.5142858329124418,6.1203177413467,-0.024673754481903915,0.4967001472906014,-1.6048365284677508
1.5098490136976495,6.032410390288533,-0.024624236793564954,0.4800481978001332,-1.6356012480519495
1.5054208314609876,5.947493988733225,-0.024577788058232686,0.4634673750366084,-1.6643814150739062
1.5010008996311728,5.865555644361351,-0.024532565606377663,0.44695867353977303,-1.6910044500707466
1.4965891680073358,5.7865822606663855,-0.024486674658477266,0.4305233675153961,-1.7152884023570487
1.4921859330048985,5.7105604839330155,-0.024438158701937326,0.4141630406331481,-1.7370410558133653
1.4877918497523601,5.637476644479893,-0.024384988548491242,0.397879619957113,-1.756058961651865
1.483407946292998,5.567316691374732,-0.02432504988886263,0.3816754145446893,-1.7721263949764567
1.4790356401811593,5.500066119729009,-0.02425612913156945,0.36555315929668103,-1.7850142337195347
1.4746767578044757,5.435709889571378,-0.024175897276024216,0.3495160646770077,-1.7944787613924729
1.4703335568124833,5.3742323351864485,-0.024081891523892725,0.33356787293332596,-1.8002603995389694
1.46600875209077,5.3156170636944715,-0.023971494272919072,0.31771292142198876,-1.8020823825625925
1.4617055457910149,5.259846841547521,-0.023841909057694736,0.30195621354413227,-1.7996493977748125
1.4574276620155455,5.206903467545363,-0.023690132891965098,0.2863034975909711,-1.7926462286177072
1.4531793868673057,5.156767630955343,-0.023512924310699488,0.2707613534092368,-1.7807364612906356
1.4489656147230634,5.109418753396703,-0.023306766180883037,0.2553372861312243,-1.7635613476914578
1.4447919017863542,5.064834813384454,-0.023067822004774394,0.24003982511596733,-1.7407389653555267
1.4406645282542334,5.022992152919784,-0.022791883907679052,0.22487862449146837,-1.7118638846834626
1.4365905708324183,4.983865266411112,-0.02247430966804446,0.20986455893821093,-1.6765076548079796
1.4325779879285503,4.947426573735051,-0.02210994481937805,0.19500980412914554,-1.634220565446084
1.4286357207604652,4.913646181725241,-0.021693023714899645,0.1803278848687477,-1.584535351376478
1.4247738150283016,4.88249164227577,-0.02121703997580653,0.16583366456982743,-1.526973802454281
1.42100357003253,4.853927721203185,-0.020674571088321696,0.15154323623669697,-1.4610576526889465
1.417337725692703,4.827916200839521,-0.020057032687532537,0.1374736566928823,-1.3863256705195703
1.413790703675746,4.804415751911627,-0.019354323056437216,0.1236424425059311,-1.3023595576233133
1.4103789281288495,4.78338192718244,-0.018554294131303634,0.11006672115169233,-1.2088220066341095
1.407121266462159,4.764767349884291,-0.0176419466097013,0.09676191549441142,-1.1055107981975416
1.4040396545536455,4.748522189918322,-0.016598185707115975,0.08373986190523684,-0.9924324485855601
1.4011600088570786,4.7345950278121585,-0.015397877588070328,0.07100638371878897,-0.8698961911512665
1.3985135892217224,4.722934172328149,-0.014006785027000354,0.05855867721464185,-0.7386214155827356
1.3961390811763572,4.713489367648144,-0.012376637699278199,0.04638359700764941,-0.5998358447269891
1.394085878961642,4.706213507197216,-0.010436720242002213,0.034459296891572504,-0.4553168233025032
1.3924196229418686,4.701063295443809,-0.008077235533257692,0.022765278146287503,-0.30730275843803645
1.3912332005333248,4.697996167508187,-0.005105235672783703,0.0113139211384248,-0.1581988772919665
1.390679571272431,4.6969529095413876,-0.0010462005593708393,0.00027783404821378303,-0.01008567160916568
