x,y,v_x,v_y,omega
2.375,32.48,0.0,2.3076923076923075,-3.3469387755102042
2.3742516318631632,31.95492987086708,-0.006507549015971563,2.258134902159134,-3.158337219870178
2.3721058095264547,31.44105695075662,-0.012151775651060008,2.2103252727144267,-2.985348955025987
2.36874865357667,30.93799090085315,-0.017040884781848446,2.1641621177505215,-2.826276392221457
2.3643430896072015,30.4453637464027,-0.021268367126574452,2.119552268775182,-2.679641754974387
2.3590319784404317,29.962828106524327,-0.02491520823664338,2.076409817123687,-2.5441545295280394
2.3529407803817795,29.490055610946225,-0.028051731403810197,2.0346553618163403,-2.418684318795883
2.3461798300177428,29.026735478193906,-0.030739141326941187,1.994215357769023,-2.302238105838418
2.33884628424028,28.57257323405699,-0.03303082195534687,1.955021547769384,-2.193941133975859
2.3310257950973594,28.127289552602818,-0.03497343146135031,1.9170104648755923,-2.0930207672310392
2.3227939501354644,27.69061920478397,-0.03660782907686713,1.8801229944187112,-1.9987928176151162
2.3142175156581812,27.262310101947314,-0.03796986202994292,1.844303986769619,-1.9106499227299625
2.3053555124255714,26.842122423405208,-0.03909103564492641,1.8095019135965218,-1.8280516341748507
2.296260148490538,26.429827818759243,-0.03999908552928076,1.7756685615857675,-1.7505159387612073
2.286977629899386,26.025208676938004,-0.04071846743725711,1.7427587585989395,-1.6776119839360157
2.277548866708059,25.628057454973668,-0.04127077770471637,1.710730128047449,-1.60895381867572
2.2680100890517925,25.238176060437027,-0.04167511495846855,1.6795428679233462,-1.5441949934283288
2.2583933857498097,24.855375282207547,-0.04194839201529616,1.649159551463436,-1.4830238889946954
2.248727176044703,24.47947426489951,-0.04210560542041585,1.6195449468673553,-1.4251596657540624
2.2390366235013412,24.110300022816098,-0.04216006886968598,1.5906658538579175,-1.370348742297981
2.2293439997683833,23.74768698977691,-0.0421236157647299,1.5624909551785022,-1.3183617270851973
2.219669004792966,23.391476601572784,-0.04200677532585293,1.534990681379117,-1.2689907387582515
2.2100290491401857,23.04151690815638,-0.04181892600267377,1.5081370874591553,-1.2220470607404428
2.200439503274457,22.697662212985,-0.04156842935148982,1.48190374011808,-1.1773590840355568
2.190932775645056,22.359775333616795,-0.04109876742590873,1.4562430369967374,-1.1306614386552583
2.1815376436805867,22.02772453086398,-0.04059803226512906,1.4311552478103602,-1.0863496384794005
2.1722606985454993,21.701380631088426,-0.04007105586606385,1.4066177937161994,-1.0442709900656633
2.163107483231312,21.380619521140105,-0.039522120779045926,1.3826092493126863,-1.0042844213940896
2.154082611843377,21.065321891582172,-0.03895502172473477,1.3591092685823656,-0.9662594583715012
2.145189875547643,20.75537299629383,-0.038373119977299634,1.3360985165336818,-0.9300753034187549
2.1364323367372977,20.450662427199255,-0.03777939141700878,1.3135586060278235,-0.8956200047889045
2.127812412785318,20.15108390298309,-0.03717646903498773,1.2914720393301475,-0.8627897066548882
2.1193319505807833,19.85653507075326,-0.03656668056966252,1.269822153972736,-0.8314879712100565
2.1109922929007188,19.56691731970243,-0.03595208186568305,1.2485930725562033,-0.8016251650705751
2.102794337542144,19.282135605900557,-0.03533448646974988,1.227769656155716,-0.7731179031782153
2.0947385900282525,19.00209828742433,-0.03471549191191542,1.2073374610288679,-0.7458885441944911
2.0868252106060154,18.726716969095513,-0.0340965030640557,1.1872826983521485,-0.7198647320688266
2.079054056168078,18.45590635616007,-0.033478752918010446,1.1675921967386487,-0.6949789790682932
2.0714247176579312,18.189584116294157,-0.03286332108326498,1.1482533673127833,-0.671168286086262
2.0639365534526437,17.92767074937226,-0.03225115026706437,1.1292541711385005,-0.6483737965121389
2.056588719160644,17.670089464477496,-0.031643060967715166,1.1105830888159764,-0.626540480352828
2.049380194222212,17.41676606367464,-0.031039764583867882,1.092229092078422,-0.6056168456560869
2.042309805656473,17.16762883210353,-0.030441875118209234,1.074181617235564,-0.5855546746028476
2.035376249260114,16.922608433984202,-0.02984991963273558,1.056430540323814,-0.5663087819153506
2.0285781085290155,16.681637814155913,-0.029264347594207884,1.0389661538352426,-0.5478367934752733
2.021913871543985,16.44465210480039,-0.0286855392321439,1.0217791449084264,-0.5300989432650159
2.015381946035279,16.2115885370254,-0.02811381301747617,1.0048605748740997,-0.5130578869394392
2.0089806728171533,15.982386357008266,-0.02754943235752933,0.9882018600574957,-0.4966785305076893
2.002712970226114,15.757097719975729,-0.02695232930368343,0.970829766312383,-0.5003429070981973
1.9965797913007781,15.535789659515984,-0.026379661351410906,0.9535881507288831,-0.506479264133892
1.990575445986699,15.318432619496793,-0.025832037031883876,0.936473066829299,-0.5149534374871465
1.9846941227782875,15.104997932511004,-0.0253099039108264,0.919480733047125,-0.5256356643691235
1.978929924170498,14.895457782855043,-0.024813562243864683,0.9026075248308085,-0.5384002681358637
1.9732768990944383,14.689785171255771,-0.024343177547958308,0.8858499673367688,-0.5531253562247972
1.967729072576805,14.48795388121395,-0.023898792170592074,0.8692047286790483,-0.5696925299230059
1.9622804728450458,14.289938446839606,-0.023480335931662277,0.8526686137065428,-0.5879866047283312
1.9569251560836265,14.095714122060908,-0.023087635906765974,0.8362385582821391,-0.6078953401153007
1.9516572290316416,13.905256851093707,-0.02272042541484222,0.8199116240413352,-0.6293091775602396
1.9464708695981412,13.718543240063685,-0.02237835226777083,0.8036849936110474,-0.6521209857140873
1.941360345658873,13.535550529677092,-0.02206098633456103,0.7875559662723651,-0.6762258116375539
1.936320032186565,13.356256568839559,-0.02176782646811765,0.771521954054023,-0.7015206370314292
1.9313444268563364,13.180639789125014,-0.02149830683821708,0.75558047824636,-0.7279041384050939
1.926428164258266,13.008679179998897,-0.021251802710222055,0.7397291663285611,-0.7552764501285323
1.9215660288404948,12.84035426470103,-0.02102763570517891,0.7239657493050652,-0.7835389293072271
1.9167529666984768,12.675645076694174,-0.020825078573239408,0.7082880594502119,-0.8125939214050014
1.9119840963190424,12.514532136584094,-0.02064335950879912,0.6926940284635389,-0.8423445255168065
1.9072547183818145,12.356996429415997,-0.020481666032313658,0.6771816860416712,-0.8726943581612254
1.902560324715151,12.203019382250403,-0.020339148460410576,0.6617491588765194,-0.9035473144205235
1.8978966064992018,12.052582841918841,-0.020214922982626546,0.6463946700935921,-0.9348073252038256
1.8932594618048189,11.90566905285598,-0.02010807435983297,0.6311165391486782,-0.966378109345691
1.8886450025539827,11.762260634900183,-0.020017658256134444,0.6159131822060679,-0.9981629191771849
1.884049560985067,11.622340560948391,-0.01994270321269742,0.6007831130269183,-1.0300642781185867
1.8794696957047234,11.485892134344013,-0.01988221226855229,0.5857249444024473,-1.061983708741127
1.8749021974074047,11.352898965867784,-0.019835164229870396,0.570737390173469,-1.0938214496285545
1.8703440943436367,11.223344950191006,-0.01980051458550293,0.5558192678854839,-1.1254761592367848
1.8657926576191013,11.09721424163839,-0.019777196062632833,0.5409695021372726,-1.1568446048002998
1.8612454064084978,10.974491229093154,-0.019764118812179488,0.5261871286908767,-1.1878213341663513
1.8567001131710565,10.855160509860152,-0.01976017020904966,0.5114712994221736,-1.2182983282515507
1.852154808958567,10.739206862283119,-0.01976421424737941,0.49682128820420146,-1.248164631609701
1.8476077889119877,10.626615216889164,-0.019775090505485395,0.4822364978301965,-1.2773059583748563
1.8430576180491927,10.51737062580716,-0.019791612649254307,0.4677164681002634,-1.3056042706007411
1.8385031374543828,10.411458230175906,-0.019812566436048413,0.45326088521500146,-1.3329373257593402
1.8339434709892526,10.3088632252224,-0.019836707173780027,0.43886959264159225,-1.3591781898924362
1.8293780326573978,10.209570822649653,-0.019862756581476633,0.4245426036431487,-1.3841947126380483
1.8248065347668776,10.11356620992624,-0.019889398988265042,0.4102801156908635,-1.4078489600916924
1.8202289970515655,10.020834506015532,-0.019915276797059508,0.3960825270109587,-1.429996601229586
1.8156457569302855,9.931360713020467,-0.019938985127114065,0.38195045555481133,-1.4504862434465438
1.8110574811040614,9.84512966314876,-0.019959065535702147,0.36788476072090126,-1.469158712688845
1.8064651787165946,9.762125960322734,-0.019973998703138898,0.3538865682010551,-1.485846273755692
1.801870216331868,9.682333915667073,-0.01998219594665792,0.33995729836993016,-1.500371786695559
1.797274335016244,9.60573747600587,-0.019981989406596574,0.3260986986839868,-1.5125477959719298
1.7926796698514622,9.532320144388088,-0.019971620721938393,0.3123128806010709,-1.5221755504146057
1.7880887722507333,9.462064891538567,-0.019949227980051207,0.2986023615686615,-1.5290439541953786
1.7835046355042228,9.39495405700356,-0.019912830685256996,0.2849701126487987,-1.5329284525876838
1.778930724044897,9.330969238630278,-0.019860312439315096,0.27141961233627043,-1.5335898616951718
1.7743710070041203,9.270091168899583,-0.019789400958744482,0.25795490706108193,-1.5307731595454912
1.7698299967233693,9.21229957653577,-0.01969764496082923,0.24458067871119601,-1.5242062682260693
1.7653127930112138,9.15757303177455,-0.019582387318784977,0.23130231921246372,-1.5135988749569946
1.760825134094598,9.10588877372237,-0.019440733695264813,0.21812601167605586,-1.4986413668733711
1.756373455428312,9.057222518454207,-0.01926951557678773,0.20505881674276022,-1.4790039937815092
1.7519649578249425,9.011548246976126,-0.019065246191641225,0.19210876132751653,-1.4543364309873144
1.7476076867959123,8.968837973081424,-0.01882406710427388,0.1792849247133792,-1.424267998696579
1.7433106256281208,8.929061492692714,-0.01854168218087002,0.16659751344931645,-1.388408917096548
1.7390838056846651,8.8921861188594,-0.018213273849179215,0.15405791118821208,-1.3463531530975164
1.7349384389174376,8.858176410679697,-0.017833393691930988,0.1416786816787537,-1.2976836669496565
1.73088707995324,8.826993910746939,-0.01739581469239357,0.12947349164958483,-1.2419812198195883
1.7269438289224297,8.798596915201841,-0.016893324705957415,0.11745690439473404,-1.1788383809348106
1.7231245923556688,8.772940314151548,-0.016317428048487105,0.10564397430347104,-1.1078809811577142
1.7194474294635285,8.749975558898157,-0.015657901448383433,0.09404954963904341,-1.0287999445122362
1.715933027301411,8.72965083565569,-0.014902117352638095,0.08268717420850684,-0.9413969796212445
1.7126053744256677,8.711911549124892,-0.014033994610346883,0.07156749127668471,-0.8456474694635634
1.7094927445421488,8.696701230724035,-0.013032352202861733,0.06069614699162509,-0.7417818271961406
1.7066291694575084,8.683962955242109,-0.011868300707054327,0.05007146589467195,-0.630380327804744
1.7040566966065476,8.673641215738673,-0.010501028431736678,0.039682790656955055,-0.51246292185044
1.7018289587681115,8.665683864252053,-0.008870604945967918,0.029511570096273976,-0.38953340022797855
1.7000172002256968,8.66004298536436,-0.0068838171619858834,0.019539550666268352,-0.263513184770757
1.6987222059497327,8.656671786461331,-0.004377002629006725,0.009775222403538354,-0.1364941479934306
1.6981095066255532,8.655506215758525,-0.0009508175812490303,0.00036017501218084565,-0.010307232494107282
