x,y,v_x,v_y,omega
2.375,32.48,0.0,2.3076923076923075,-2.0
2.374547476653732,31.954911513299617,-0.0039349856197243025,2.2582945331805533,-1.8873795377012463
2.3732502911864644,31.440986789210932,-0.007344888008686821,2.210616111068883,-1.7840724149066156
2.3712216064853178,30.937841470206124,-0.010295848523022075,2.164560575929472,-1.6890683028260738
2.3685604093533508,30.445112552126307,-0.012844996102777851,2.1200387117210884,-1.6014870287336254
2.3653534283031203,29.96245679715742,-0.0150417956383561,2.076967853225761,-1.5205594923618235
2.3616767666162337,29.489549297813063,-0.016929175551962633,2.0352712715077748,-1.4456116977102045
2.357597296924232,29.0260821740224,-0.018544473943705196,1.9948776310197378,-1.3760513416996054
2.353173855389307,28.57176338801671,-0.019920235055644938,1.9557205081601714,-1.31135651007662
2.3484582669516714,28.126315663853877,-0.021084881793357643,1.917737962820986,-1.2510661169639965
2.343496227740708,27.689475500206246,-0.022063285258497108,1.880872155854046,-1.19477179267641
2.3383280663679025,27.260992266534323,-0.022877248418076028,1.845069006510504,-1.1421109788226702
2.3329894022343423,26.840627374031023,-0.023545917960706413,1.8102778848225554,-1.0927610333029247
2.3275117160394045,26.428153513791834,-0.024086135908316927,1.7764513346486466,-1.0464341828904185
2.321922845247723,26.023353955579015,-0.02451274054108513,1.743544823723679,-1.0028731894431016
2.3162474152613486,25.626021901330084,-0.024838824557826416,1.7115165175713734,-0.9618476188036413
2.310507215375419,25.235959888234174,-0.025075957058950004,1.680327074566969,-0.9231506201963161
2.3047215272064236,24.85297923678189,-0.0252343748453586,1.6499394598006925,-0.8865961392624272
2.2989074121220217,24.476899539699488,-0.025323147627701704,1.6203187756984903,-0.8520165004594263
2.2930799632299332,24.10754818811828,-0.02535032099915506,1.5914321076163584,-0.8192603049111989
2.2872525266676678,23.744759931715087,-0.025323040411848415,1.5632483828461925,-0.7881905983579194
2.2814368962481226,23.388376469896773,-0.025247658888544303,1.535738241660872,-0.7586832709489855
2.275643484936451,23.03824607139898,-0.025129830778167616,1.5088739191894895,-0.7306256565205989
2.269881476143201,22.694223219930926,-0.024974593510960326,1.4826291370544862,-0.7039153039168843
2.26417020533301,22.356169216765707,-0.024688630925482912,1.456970890469156,-0.6759966827487796
2.258526837510749,22.023950881097612,-0.02438413274635267,1.431884202296884,-0.649504104273768
2.252955300132319,21.697439332695883,-0.02406401837043033,1.4073466533703174,-0.6243463522211353
2.2474588876926735,21.376510717139645,-0.023730872409094397,1.3833369601621595,-0.6004391465277208
2.2420403343728483,21.061045952894347,-0.023386982545908406,1.3598349028404548,-0.5777045333052675
2.236701878495147,20.75093049431149,-0.02303437291236423,1.3368212587495876,-0.5560703355269138
2.2314453197524493,20.446054109358492,-0.02267483354587705,1.31427774084172,-0.5354696577012225
2.2262720700565515,20.14631067098915,-0.02230994641845186,1.2921869406308235,-0.5158404386230908
2.221183198745584,19.851597961158994,-0.021941108459525946,1.2705322752835593,-0.49712504700277743
2.21617947279955,19.56181748657403,-0.021569551940767095,1.2492979384987262,-0.4792699153927895
2.2112613926339524,19.276874305337735,-0.021196362542691017,1.2284688548603513,-0.4622252083707166
2.206429223972649,18.99667686373018,-0.02082249538169053,1.2080306373792895,-0.44594452140551494
2.201683026241101,18.721136842415603,-0.020448789240464962,1.1879695479648145,-0.43038460724476574
2.1970226778688287,18.450169011431626,-0.020075979214074238,1.1682724605915162,-0.41550512701918085
2.1924478988441303,18.183691093364562,-0.019704707957219788,1.148926826948191,-0.40126842357503345
2.1879582708240926,17.921623634162444,-0.01933553569528195,1.1299206443745968,-0.3876393148211772
2.183553255067849,17.663889881079804,-0.01896894914161837,1.111242425909202,-0.37458490511995646
2.179232208430247,17.41041566728729,-0.018605369446223225,1.0928811722865863,-0.3620744129649601
2.174994397626076,17.16112930271456,-0.01824515928569914,1.0748263457371667,-0.3500790133769739
2.170839011951222,16.91596147072751,-0.017888629191291867,1.0570678454545572,-0.3385716936158674
2.1667651746261987,16.6748451302704,-0.01753604320021761,1.0395959846073086,-0.3275271209532968
2.162771952909047,16.437715423130612,-0.017187623905446574,1.0224014687821121,-0.31692152138141094
2.158858367108336,16.204509586008854,-0.016843556970300128,1.0054753757549246,-0.30673256824831086
2.1550233986126037,15.975166867100114,-0.01650399516650534,0.9888091364949725,-0.2969392799136225
2.1512685812163093,15.749731974763417,-0.01614659088822696,0.971494275128482,-0.3055348638821141
2.1475936957951802,15.528264846245488,-0.01580893451289573,0.9543068424187253,-0.316453526279289
2.143994114196523,15.310736609996987,-0.015491775040646414,0.9372430380030328,-0.329568650071461
2.1404650546963144,15.097119250740327,-0.0151956988742086,0.9202992164026959,-0.3447576474851328
2.1370016178347964,14.88738557468367,-0.014921143399862728,0.9034718797421623,-0.3619016700333965
2.133598819251506,14.681509176347632,-0.014668409498316931,0.8867576710059987,-0.380885329941136
2.130251619756635,14.479464406884386,-0.014437673065778653,0.870153367804843,-0.40159643181249033
2.1269549528579015,14.281226343774982,-0.014228995618859899,0.8536558766247453,-0.4239257134311022
2.1237037499458875,14.086770761796345,-0.01404233405082711,0.8372622275373338,-0.4477665946230306
2.1204929633259235,13.896074105154167,-0.013877549601032279,0.8209695693511618,-0.4730149331440891
2.117317587270984,13.709113460682229,-0.013734416094092376,0.8047751651874314,-0.4995687865779175
2.114172677257609,13.525866532012074,-0.013612627500474489,0.7886763884660724,-0.5273281792483862
2.111053367535516,13.34631161462002,-0.013511804865552694,0.7726707192909185,-0.5561948731599525
2.10795488717124,13.170427571660632,-0.013431502649890709,0.7567557412254925,-0.5860721419822508
2.1048725746967674,12.998193810497522,-0.01337121451943513,0.7409291384537249,-0.616864547090333
2.1018018914856813,12.829590259843219,-0.013330378620442491,0.7251886933228218,-0.6484777146593332
2.0987384339717488,12.664597347420216,-0.013308382370275646,0.7095322842685037,-0.6808181127915479
2.095677944818126,12.503195978054848,-0.01330456679165798,0.6939578841260047,-0.7137928276245912
2.0926163231394144,12.345367512114493,-0.013318230414534905,0.6784635588335892,-0.7473093373308378
2.089549633873615,12.191093744196646,-0.013348632766327957,0.6630474665389764,-0.7812752828701818
2.086474116396662,12.04035688197552,-0.013394997468044203,0.6477078571230077,-0.8155982342994545
2.0833861924685424,11.893139525108062,-0.013456514950387652,0.6324430721592247,-0.850185451371798
2.0802824735971703,11.749424644096475,-0.013532344800673932,0.6172515453328217,-0.8849436370768802
2.0771597679040803,11.609195558998206,-0.013621617747936118,0.6021318033477813,-0.9197786826769664
2.0740150865747076,11.472435917867156,-0.013723437290087145,0.5870824673570031,-0.954595402683283
2.0708456499755648,11.339129674801043,-0.01383688096332818,0.5721022549570087,-0.9892972580904854
2.067648893521019,11.20926106745939,-0.013961001250114105,0.5571899827964855,-1.0237860660429259
2.064422473373703,11.082814593904278,-0.01409482611785306,0.5423445698566821,-1.0579616939433134
2.061164272064902,10.959774988601517,-0.014237359176067617,0.5275650414716686,-1.0917217358307418
2.0578724041246392,10.840127197402964,-0.014387579434913967,0.5128505341679315,-1.1249611686495191
2.054545221815717,10.723856351310818,-0.014544440642668072,0.4982003014159436,-1.1575719858015052
2.051181321071805,10.610947738801812,-0.014706870173959713,0.4836137204014923,-1.189442805121974
2.0477795477468814,10.501386776462311,-0.014873767434071272,0.46909029994199825,-1.2204584481421998
2.044339004292161,10.395158977654269,-0.015044001737408537,0.4546296896931553,-1.2504994872020778
2.0408590569871894,10.292249918895905,-0.01521640961017051,0.44023169081436603,-1.2794417566558796
2.037339343864333,10.192645203599124,-0.015389791458148583,0.42589626828806393,-1.3071558240791923
2.033779783480661,10.096330422757365,-0.015562907530302577,0.4116235651185422,-1.33350641704468
2.0301805847085106,10.003291112121591,-0.015734473097090362,0.3974139186707883,-1.358351800703972
2.0265422577361845,9.913512705337766,-0.015903152749226337,0.38326787944944213,-1.3815431011169388
2.022865626493682,9.826980482444881,-0.016067553707313404,0.3691862326626084,-1.4029235690448623
2.0191518427455866,9.74367951304772,-0.016226218015256567,0.355170022964876,-1.422327778826359
2.0154024021247783,9.663594593381529,-0.016377613470034916,0.34122058282809314,-1.43958075706744
2.011619162417312,9.586710176376005,-0.01652012311662563,0.32733956504603356,-1.454497036322883
2.0078043644513968,9.513010293702884,-0.01665203310872688,0.3135289799376284,-1.4668796299065014
2.003960655993151,9.442478468655178,-0.01677151870210509,0.29979123786851647,-1.4765189257096152
2.000091119110224,9.375097618558513,-0.016876628105952786,0.28612919775466866,-1.48319149982196
1.9961993015334931,9.310849945260024,-0.016965263865623664,0.27254622223218156,-1.4866588554130697
1.992289252629914,9.249716812085659,-0.017035161382889314,0.25904624015361216,-1.486666099591367
1.9883655647005223,9.191678605516337,-0.017083864090083212,0.24563381697093054,-1.4829405820586756
1.9844334204430807,9.136714579730917,-0.017108694670278063,0.2323142333370702,-1.475190536155405
1.9804986475791826,9.084802682137607,-0.017106721537532635,0.21909357182216566,-1.4631037880527225
1.9765677818567517,9.035919358127664,-0.017074719527082595,0.20597881087299943,-1.446346637381216
1.9726481399268632,8.990039333633973,-0.017009123341514026,0.19297792385475343,-1.424563068355758
1.968747904001063,8.947135374815556,-0.016905971665444514,0.18009997891409507,-1.397374533041778
1.9648762207922221,8.907178025553517,-0.016760838846215428,0.16735523206016856,-1.3643806702259598
1.9610433181456774,8.870135325792429,-0.016568749384605726,0.15475520064494785,-1.3251615020387406
1.9572606441749394,8.835972517626235,-0.016324067752248483,0.14231269645240277,-1.2792819102157522
1.9535410359592025,8.804651752176081,-0.01602035151502852,0.13004178572285754,-1.2262995657328242
1.9498989284969734,8.776131819787278,-0.015650148156527637,0.11795762635370859,-1.1657780040032977
1.9463506205788934,8.750367940180645,-0.015204703305037561,0.10607610935613061,-1.097307227050893
1.9429146241039446,8.727311669196617,-0.01467352691190902,0.09441320354847979,-1.0205350486400286
1.9396121396801274,8.706911004988232,-0.014043728947372392,0.08298387652443195,-0.9352132071308386
1.9364677282704696,8.689110805957256,-0.013298978962693173,0.0718004628753554,-0.8412625280838137
1.9335102928565246,8.67385365378371,-0.012417850723786646,0.06087042559028372,-0.7388598546615124
1.9307745569936516,8.661081277131782,-0.01137115677945593,0.050193719209081535,-0.6285435338185879
1.9283033524251745,8.650736529495685,-0.010117578598607527,0.039760608061313214,-0.5113200302267079
1.9261512746580185,8.642765567316957,-0.008596141115791165,0.029552106536312295,-0.38872872541210457
1.9243909033346127,8.637119084410273,-0.006711435609475374,0.01954774482614785,-0.26279063963644544
1.923125144602315,8.633749552679834,-0.004295162062680109,0.009752531090715853,-0.13575289645655758
1.9225236248844375,8.632592731343305,-0.0009354441797319118,0.0003067848791018929,-0.009607187556900931
