x,y,v_x,v_y,omega
2.375,32.48,0.0,2.1538461538461537,-4.571428571428571
2.374388280047939,32.074531318498025,-0.006439157390116673,2.114245230385127,-4.3645769771357
2.3726201029536247,31.67648230039309,-0.012173233076350437,2.0757444338773623,-4.171054331763706
2.369822678252452,31.285649019521365,-0.017273342725466746,2.0382901016144577,-3.9897070496140166
2.3661104464510916,30.901837390232377,-0.02180278149937996,2.001832311953848,-3.8195023984079093
2.3615864734667156,30.524862490829424,-0.025817986757208273,1.9663245238666938,-3.6595138236221896
2.356343674809521,30.154547951197067,-0.029369367529051442,1.931723261737058,-3.508908300358673
2.3504658928502433,29.7907253966773,-0.03250202151597667,1.8979878384710462,-3.3669353974532727
2.344028846916383,29.433233941458028,-0.035256356735184846,1.8650801112054802,-3.2329177932966173
2.3371009729859313,29.081919725728618,-0.03766863200641167,1.8329642648936004,-3.1062430270562564
2.3297441672748316,28.736635491678694,-0.03977142811042714,1.8016066198424319,-2.9863563048948873
2.322014445949463,28.39724019410098,-0.04159405952503047,1.7709754599229428,-2.8727542100881656
2.313962531463166,28.063598641931705,-0.04316293506757254,1.7410408787010399,-2.764979189990823
2.30563437455656,27.735581167544055,-0.044501874475647116,1.7117746411689707,-2.6626147126193365
2.297071619727344,27.413063321017383,-0.04563238688452027,1.683150059111763,-2.5652810020283043
2.288312020927834,27.09592558695027,-0.04657391626821817,1.6551418784367977,-2.4726312752996744
2.27938981335648,26.784053121680138,-0.04734405816708549,1.6277261770382556,-2.3843484153503365
2.2703360464475,26.47733550902423,-0.04795875140112427,1.600880271971317,-2.300142023302718
2.261178882509714,26.17566653287325,-0.04843244794399253,1.5745826348810854,-2.2197458021827536
2.2519438649044976,25.878943965156,-0.04877826368986552,1.5488128147742022,-2.1429152304744963
2.2426541591692684,25.587069367854976,-0.04900811247044179,1.5235513673418235,-2.0694254897851323
2.2333307700752965,25.29994790789374,-0.04913282536083952,1.4987797901449043,-1.999069615732851
2.2239975682346307,25.01749216771839,-0.04911140454090441,1.474438527490343,-1.9291137442653172
2.2146751505004625,24.73961783301301,-0.04901930845034023,1.4505544694083905,-1.8622651140053275
2.2053762755360355,24.46623956163291,-0.04886358591204942,1.4271115451189849,-1.7983494919378458
2.1961124233848635,24.197274995604502,-0.04865064725818195,1.404094413074801,-1.7372042729903192
2.1868939111127395,23.932644626602674,-0.048386324027335254,1.381488418523403,-1.678677578741881
2.1777299976734987,23.67227166920543,-0.04807592270151504,1.359279554079131,-1.622627435562734
2.1686289790700566,23.41608194137822,-0.047724273124192314,1.3374544230494003,-1.5689210243376541
2.1595982747674687,23.164003751686405,-0.04733577216620556,1.3160002052854978,-1.5174339947868871
2.150644506213279,22.91596779277599,-0.04691442314105505,1.2949046253504333,-1.4680498381535272
2.141773568230545,22.671907040700145,-0.046463871414040604,1.2741559228163706,-1.4206593126924065
2.132990693969248,22.43175665970301,-0.04598743659961536,1.2537428245218942,-1.3751599169832536
2.124300514031037,22.195453912103087,-0.045488141697334804,1.2336545186351844,-1.3314554066104223
2.1157071103193736,21.962938072946333,-0.04496873947807461,1.2138806303832845,-1.2894553502114987
2.1072140651111377,21.734150349124494,-0.044431736398088076,1.1944111993202724,-1.2490747213049826
2.098824505795923,21.509033802677315,-0.04387941428838475,1.1752366580184612,-1.2102335226694703
2.0905411456846954,21.287533278018255,-0.04331385004032781,1.1563478120769146,-1.172856440368894
2.0823663212498054,21.06959533284263,-0.04273693348483061,1.1377358213506943,-1.13687252480525
2.0743020261227847,20.85516817249463,-0.0421503836417023,1.1193921823124893,-1.102214896436057
2.066349942144587,20.644201587585705,-0.0415557634972191,1.1013087114656972,-1.068820474022213
2.0585114677344496,20.43664689467166,-0.040954493451596255,1.0834775297347419,-1.0366297234761417
2.0507877438180198,20.232456879809234,-0.040347863563456286,1.0658910477644759,-1.0055864255629234
2.0431796775324766,20.031585744825335,-0.03973704470541585,1.048541952066027,-0.9756374608709517
2.0356879639057937,19.83398905614368,-0.03912309873335638,1.0314231919514363,-0.9467326106156757
2.028313105688769,19.639623696023914,-0.03850698776163803,1.0145279672039735,-0.9188243719720471
2.0210554315018183,19.448447816078197,-0.03788958262731689,0.9978497164351517,-0.8918677867500721
2.01391891719389,19.260632883389313,-0.03723162061403085,0.979149575026778,-0.9097401958906264
2.006904473581451,19.076359964593628,-0.03660462793796155,0.96056535966462,-0.9293814615904735
2.0000062601333246,18.895607327719617,-0.036008145200209965,0.9420939758513261,-0.9506716184003967
1.9932185312977106,18.718353816639812,-0.03544163201677995,0.9237324565676627,-0.9734931844844167
1.986535651217967,18.544578827252238,-0.03490447408578244,0.9054779580383906,-0.9977309025636943
1.9799521071614596,18.374262284424663,-0.03439598966692779,0.8873277559360536,-1.023271485647475
1.9734625217694852,18.207384619619397,-0.033915435511751565,0.8692792420141384,-1.0500033664982575
1.9670616642293222,18.043926749117468,-0.0334620122794372,0.8513299211640557,-1.0778164497803162
1.960744460463155,17.883870052762006,-0.03303486946969197,0.8334774088934406,-1.106601865835021
1.9545060024229512,17.72719635314062,-0.03263310990087301,0.8157194292264375,-1.136251725012929
1.9483415565753184,17.573887895126262,-0.03225579375842104,0.7980538130299485,-1.1666588714710815
1.942246571655885,17.42392732569495,-0.0319019422356138,0.7804784967733341,-1.1977166353140292
1.9362166857688627,17.277297673936868,-0.031570540785673444,0.7629915217328072,-1.2293185819184111
1.930247732904098,17.13398233117495,-0.0312605420013244,0.745591033655814,-1.2613582572329836
1.9243357489411497,16.99396503110166,-0.030970868134973767,0.728275282905109,-1.29372892778829
1.918476977207701,16.857229829840506,-0.030700413269746117,0.7110426251070632,-1.3263233140821211
1.9126678736579565,16.723761085833594,-0.030448045148619214,0.6938915223340999,-1.3590333159278951
1.9069051117355824,16.593543439450432,-0.03021260666584449,0.676820544857081,-1.391749728262468
1.9011855869852692,16.46656179220555,-0.029992917021662648,0.6598283735101012,-1.4243619458070074
1.895506421477101,16.34280128546392,-0.029787772538003677,0.642913802717581,-1.4567576548588703
1.889864968108702,16.22224727850277,-0.029595947129351895,0.6260757442419107,-1.488822510363441
1.884258814851588,16.10488532578645,-0.0294161924192168,0.6093132317193336,-1.5204397962723528
1.8786857890103426,15.990701153297184,-0.029247237488630586,0.5926254260624243,-1.5514900670385483
1.8731439615662424,15.879680633748393,-0.029087788238739126,0.5760116218195841,-1.5818507679298195
1.8676316516808058,15.771809760488946,-0.028936526344804012,0.559471254595646,-1.6113958316622559
1.862147431439546,15.667074619885309,-0.02879210777371903,0.5430039096531493,-1.6399952486659737
1.8566901309220611,15.565461361944283,-0.028653160831385794,0.5266093318313299,-1.6675146081018735
1.8512588436915893,15.466956168911047,-0.028518283699896983,0.5102874369395861,-1.6938146065566577
1.8458529328054527,15.371545221545375,-0.028386041417331892,0.4940383248043242,-1.7187505211640348
1.8404720374575363,15.279214662742547,-0.02825496224494574,0.4778622941728139,-1.7421716437479102
1.8351160803753068,15.189950558124146,-0.028123533357468988,0.46175985970507427,-1.7639206724802565
1.8297852761070648,15.103738853177259,-0.027990195781921582,0.4457317713147907,-1.7838330575237769
1.8244801403504223,15.02056532646786,-0.02785333849852585,0.42977903615254276,-1.8017362972326079
1.8192015004907183,14.94041553839531,-0.027711291603620954,0.4139029435585151,-1.8174491817775587
1.8139505075386202,14.863274774889373,-0.02756231841846418,0.3981050933461062,-1.8307809816373446
1.8087286496800319,14.789127985379515,-0.02740460640878247,0.3823874278102748,-1.84153057938393
1.8035377676792868,14.717959714288796,-0.02723625675695432,0.36675226788151605,-1.8494855447727185
1.7983800724093424,14.649754025223121,-0.02705527240035595,0.3512023538624227,-1.8544211555882544
1.7932581648215158,14.584494416944082,-0.02685954431360712,0.3357408911801059,-1.8560993703639905
1.7881750587139498,14.522163730134633,-0.026646835766036027,0.32037160155094274,-1.8542677645166812
1.7831342067149158,14.462744043900226,-0.026414764223796416,0.30509877986386563,-1.8486584493595875
1.7781395299679423,14.406216560906312,-0.026160780481188285,0.28992735691418114,-1.8389870049463575
1.7731954520960507,14.352561480056934,-0.02588214448609077,0.2748629678161132,-1.8249514742593087
1.7683069381404821,14.301757855699378,-0.02557589715147387,0.2599120254213172,-1.8062314900360197
1.763479539328105,14.253783442543412,-0.025238827189337048,0.2450817972730747,-1.7824876395626208
1.7587194447413754,14.208614525880716,-0.02486743161834175,0.23038048338690167,-1.7533612213264314
1.7540335412769597,14.166225737384284,-0.024457868007089212,0.21581729025973279,-1.7184746164777227
1.7494294837341258,14.126589857910147,-0.02400589560168684,0.20140249367855828,-1.6774325957805523
1.7449157775515443,14.089677610531751,-0.023506801057066987,0.18714747872559268,-1.6298250200436357
1.7405018777383567,14.055457449815119,-0.022955302239644593,0.17306473934423297,-1.5752315827434924
1.7361983091250024,14.023895357500454,-0.022345420006190903,0.15916781133645577,-1.5132295035683274
1.7320168155134303,13.994954660813011,-0.021670302220883366,0.14547110116295414,-1.443405425235402
1.7279705491437733,13.968595898161581,-0.02092197535445171,0.13198955832578085,-1.3653731958777795
1.7240743179102163,13.944776768458059,-0.020090984998782525,0.11873812276393074,-1.2787997029259115
1.7203449171763663,13.923452214580479,-0.019165864831216066,0.10573086542111539,-1.183441342948082
1.7168015877139302,13.904574706838883,-0.018132340036531917,0.09297974238516525,-1.0791937620402408
1.7134666640165772,13.888094803158673,-0.01697211993560547,0.0804929279328377,-0.9661565301545625
1.710366512455839,13.873962056001346,-0.015661054387955665,0.06827283161794986,-0.8447112128127123
1.7075329147634504,13.86212628554608,-0.014166289742451411,0.05631422580593265,-0.7156040749886944
1.7050051500520396,13.852539098381925,-0.012441759851343962,0.04460353381674614,-0.580011764717697
1.7028332363167027,13.845155227207368,-0.010420489994306854,0.03312142591543615,-0.4395509418441597
1.7010833736603863,13.839932653991994,-0.007999116914287037,0.021853028983249798,-0.2961791328981298
1.699848833134053,13.836828942810126,-0.0049960465208006375,0.01081761503640009,-0.15193962255784893
1.699282930669578,13.835783268249578,-0.0009608215263050557,0.00018948560093217173,-0.008587627058083608
