x,y,v_x,v_y,omega
2.375,32.48,0.0,2.871794871794872,-7.63265306122449
2.3735675527008,31.94033098231646,-0.015078392623155279,2.808931630137093,-7.192788596677871
2.3694616414907776,31.412379088898902,-0.0281417253770846,2.748456721626684,-6.7905632980917225
2.3630406265805144,30.895705434801574,-0.03944790525726364,2.6902133215030823,-6.421734727768078
2.3546173237133448,30.389899474553484,-0.04921844071294244,2.6340599442662858,-6.082635577533178
2.3444653683240615,29.89457628648072,-0.0576442475953035,2.5798683512365033,-5.7700830762594455
2.33282457668742,29.409374219904418,-0.0648904012114497,2.5275218232508894,-5.481304716434869
2.319905483603618,28.93395284301573,-0.07110005230225656,2.4769137229458056,-5.2138769726501994
2.3058931996224197,28.467991141910076,-0.07639767381561922,2.4279462886926493,-4.965674445177388
2.290950702676696,28.01118593102351,-0.08089176771831119,2.380529615376483,-4.734827429497673
2.2752216571131854,27.563250442791407,-0.08467713295022587,2.334580787066711,-4.519686341161113
2.2588328359209338,27.123913070280388,-0.08783677433663135,2.2900231341018804,-4.318791752118902
2.2418962083393916,26.692916241222783,-0.09044351599539048,2.246785592820305,-4.130849046169837
2.2245107441504697,26.27001540560124,-0.09256137020378949,2.204802150564345,-3.9547068964170644
2.206763977206538,25.854978121907997,-0.09424670289022928,2.1640113619961143,-3.78933892043771
2.188733363656735,25.447583229602884,-0.09554922921295733,2.1243559254261077,-3.6338279893452077
2.1704874645559014,25.047620097242028,-0.09651286658529148,2.0857823099513415,-3.487352762568619
2.152086977804786,24.654887937340106,-0.09717646763697407,2.0482404258583387,-3.349176096591201
2.133585640468778,24.269195180337107,-0.09757445168942692,2.0116833320679683,-3.2186350373118016
2.1150310192929855,23.890358901122063,-0.09773735016102036,1.976066975458804,-3.095132155335471
2.096465204546565,23.518204292466248,-0.09769227874866994,1.9413499577603337,-2.9781280238315366
2.077925420087863,23.152564180470947,-0.0974633471324026,1.9074933264007465,-2.8671346715241595
2.059444560663846,22.7932785777682,-0.09707201522567231,1.874460386259745,-2.761709870384515
2.041051665878017,22.440194270748133,-0.0965374035725289,1.842216529740944,-2.6614521398355224
2.022772338928665,22.09316443754143,-0.09587656431538573,1.8107290829612017,-2.565996367673399
2.004629117091764,21.752048293873813,-0.09510471817831229,1.7799671661715764,-2.475009963179125
1.9866417999658885,21.41671076424256,-0.09423546209405807,1.7499015667890192,-2.3881894706136624
1.968827740682126,21.08702217615187,-0.09328095141923236,1.7205046236393016,-2.3052575819249026
1.9512021045870624,20.762857975392333,-0.09225206010774994,1.6917501211979074,-2.2259604964129753
1.9337780993125873,20.444098460565097,-0.09115852172883122,1.6636131927729931,-2.1500655826035615
1.9165671796366741,20.130628535239396,-0.09000905380709816,1.636070231708082,-2.0773593039095255
1.899579230101474,19.822337476296507,-0.08881146761605861,1.6090988097960004,-2.0076453750176992
1.882822727978038,19.519118717157554,-0.0875727652622147,1.5826776021929878,-1.9407431204821526
1.8663048888416918,19.220869644719688,-0.08629922564669412,1.5567863182056059,-1.8764860108707833
1.850031796740875,18.927491408937605,-0.08499648067769222,1.5314056373952545,-1.8147203551081894
1.8340085206986823,18.638888744086838,-0.0836695829243373,1.5065171505075636,-1.7553041304750852
1.8182392190749965,18.354969800833743,-0.08232306574604012,1.482103304788182,-1.6981059341380964
1.802738875568099,18.075651695254706,-0.08083844485287985,1.4580872802543083,-1.6391477031225041
1.7875199660785583,17.800854331061842,-0.07936060240544261,1.4345165533547934,-1.582775997806241
1.7725809942359705,17.530494572943226,-0.07789173277969265,1.4113756373674808,-1.528847447093084
1.7579200741199568,17.264492162432724,-0.07643374212571627,1.3886497364272552,-1.4772281352295693
1.7435349820758492,17.00276959037445,-0.0749882793912037,1.3663247062914472,-1.4277928782328755
1.7294232029519874,16.745251976586786,-0.07355676401786834,1.3443870177892145,-1.3804245631544325
1.7155819713554508,16.491866956236688,-0.072140410682517,1.3228237227381374,-1.3350135440821598
1.7020083084566056,16.242544572474067,-0.07074025141059051,1.3016224221315418,-1.2914570894373676
1.688699054814197,15.997217174911842,-0.06935715535160439,1.280771236418172,-1.2496588756989613
1.675650899640926,15.755819323569472,-0.0679918464723001,1.2602587777120393,-1.2095285231974118
1.662860406883643,15.518287697927274,-0.0666449193938385,1.2400741237847956,-1.1709811700723805
1.650324038451747,15.284561010765646,-0.065316853573487,1.2202067937060233,-1.1339370808881848
1.6380381748914579,15.054579926487762,-0.06400802600850451,1.2006467250085588,-1.0983212867567407
1.6259991337717583,14.828286983646628,-0.06271872261991132,1.1813842522665339,-1.0640632541336719
1.614203186019528,14.60562652141789,-0.06144914845619705,1.1624100869833442,-1.0310965797346765
1.6026465704162498,14.386544609778412,-0.06019943684146844,1.1437152986953736,-0.9993587092700988
1.5913255064463234,14.170988983167867,-0.05896965757880974,1.1252912972050808,-0.9687906779195798
1.5802362056671244,13.95890897742629,-0.05775982430749545,1.1071298158641258,-0.9393368706687734
1.5693748817532258,13.750255469815006,-0.056569901101962666,1.089222895833606,-0.9109448008091764
1.5587377593513996,13.544980821941657,-0.0553998083909468,1.071562871254294,-0.8835649050625223
1.5483210818689173,13.343038825422319,-0.05424942826676164,1.0541423552650562,-0.8571503539350432
1.5381211183050878,13.144384650124955,-0.053118609247233245,1.036954226812452,-0.8316568760360618
1.5281341692247152,12.948974794848876,-0.052007170546162634,1.0199916181988984,-0.8070425952114634
1.5183565719621115,12.756767040304506,-0.050914905902297275,1.0032479033207975,-0.7832678794470539
1.5087847051352963,12.56772040426662,-0.04984158701154756,0.9867166865516895,-0.7602952005908882
1.4994244555227114,12.382010358172057,-0.0486873562788211,0.9681259039173855,-0.7832590380206025
1.4902785176401614,12.199821940288231,-0.04758567406380806,0.9496469159123568,-0.8078512091067892
1.481337054583415,12.021134189127697,-0.04653498969141697,0.9312767805143117,-0.8339543148768211
1.4725905265041668,11.845926690602276,-0.04553372693224946,0.9130126776479912,-0.8614533219088337
1.4640296950803058,11.674179555225049,-0.04458028805575925,0.8948519052701872,-0.8902352991048486
1.4556456272556255,11.505873396014763,-0.043673057467192286,0.8767918758907186,-0.9201891592874262
1.4474296983253894,11.340989307020568,-0.042810404956346644,0.8588301135218549,-0.9512054044991032
1.439373594439127,11.17950884238607,-0.04199068858325843,0.840964251051807,-0.9831758738870466
1.431469314587522,11.02141399587224,-0.04121225722310998,0.8231920280411207,-1.0159934930500965
1.4237091721362818,10.866687180758639,-0.04047345278994548,0.8055112889441476,-1.0495520237114961
1.4160857959664033,10.715311210041623,-0.039772612156143715,0.7879199817612839,-1.0837458125578705
1.4085921312772782,10.567269276846819,-0.03910806878201372,0.7704161571313926,-1.1184695380530556
1.4012214401065912,10.422544934970944,-0.03847815406732346,0.7529979678778348,-1.1536179539938125
1.3939673016189638,10.281122079465092,-0.03788119843401876,0.7356636690258683,-1.1890856285227553
1.3868236122137847,10.142984927167813,-0.03731553214681402,0.7184116183139115,-1.224766677251449
1.3797845855016448,10.008117997091485,-0.036779485875710595,0.7012402772263843,-1.2605544890729492
1.3728447521982818,9.876506090559726,-0.036271391001794155,0.6841482125816118,-1.2963414431574125
1.365998959984951,9.748134270986576,-0.03578957966484734,0.6671340987147145,-1.3320186155260982
1.3592423733846966,9.622987843179931,-0.03533238454835585,0.6501967203026081,-1.3674754734874663
1.3525704737051398,9.501052332041983,-0.03489813839434698,0.633334975886337,-1.4025995560935234
1.3459790591001486,9.382313460528046,-0.034485173237139746,0.6165478821550904,-1.4372761386346478
1.3394642448051817,9.266757126711987,-0.034091819341460224,0.5998345790665746,-1.4713878790366157
1.3330224636042316,9.154369379791103,-0.03371640382643446,0.583194335890099,-1.5048144438546716
1.326650466590218,9.045136394845706,-0.03335724895265796,0.5666265582719809,-1.5374321113770857
1.3203453242854601,8.939044446148266,-0.03301267004479172,0.5501307964378958,-1.5691133491564977
1.3141044281946017,8.836079878793605,-0.03268097301687682,0.5337067546638132,-1.5997263630846528
1.3079254928691362,8.736229078394732,-0.0323604514617077,0.5173543021664143,-1.6291346149200716
1.3018065585706633,8.639478438558292,-0.0320493832590593,0.5010734855855881,-1.6571963049768457
1.295745994629283,8.545814325818341,-0.03174602665020589,0.48486454325599027,-1.6837638164982835
1.2897425036043173,8.455223041667299,-0.031448615717854594,0.4687279214918367,-1.7086831180895752
1.2837951263670107,8.367690781277354,-0.031155355201163887,0.4526642931391675,-1.7317931204952661
1.277903248239254,8.283203588454285,-0.030864414564695443,0.43667457868260817,-1.7529249840181094
1.272066606338981,8.201747306307706,-0.030573921227652807,0.42075997022874373,-1.7719013730402629
1.2662852983020616,8.123307523057129,-0.030281952845183074,0.40492195872470865,-1.7885356545037197
1.2605597925727217,8.047869512321633,-0.02998652851628883,0.3891623648068291,-1.802631037945237
1.2548909404803146,7.975418167162786,-0.029685598772207823,0.37348337370735957,-1.81397965591983
1.2492799903504448,7.905937927066649,-0.029377034173789958,0.3578875746730184,-1.8223615856107107
1.2437286039340394,7.83941269696351,-0.02905861231468744,0.3423780053600172,-1.827543815431934
1.2382388754804323,7.7758257572970315,-0.028728002986438614,0.32695820165554323,-1.829279164937739
1.2328133538319856,7.71515966407452,-0.028382751207737467,0.31163225331825095,-1.82730517300752
1.227455067981276,7.657396137767353,-0.028020257747101405,0.29640486570456254,-1.8213429790010198
1.2221675566120276,7.602515939902013,-0.027637756666038498,0.2812814276148074,-1.8110962356917795
1.216954902248737,7.550498736213516,-0.027232289263337425,0.2662680848956744,-1.7962501131656516
1.2118217707780534,7.501322945363626,-0.026800673585963566,0.25137181878740045,-1.77647048218754
1.20677345729418,7.454965572515771,-0.026339468349545498,0.2366005269795007,-1.751403407582625
1.2018159394871029,7.411402027596061,-0.02584492961968814,0.22196310375429018,-1.720675142283395
1.1969559401779482,7.370605928986304,-0.025312957845098332,0.20746951319053544,-1.6838928982809604
1.1922010011763509,7.332548894881828,-0.024739031645398424,0.1931308458039385,-1.6406467918927217
1.1875595714959697,7.297200326876531,-0.024118122884930083,0.1789593437255046,-1.590513530781525
1.1830411142848627,7.264527193887361,-0.02344458460040758,0.16496837194997913,-1.5330626453006846
1.1786562388763155,7.2344938297989,-0.02271199864745702,0.15117230266538706,-1.4678663842616282
1.1744168675696274,7.207061765798855,-0.021912962475577273,0.13758626575613872,-1.3945148068202164
1.1703364517800148,7.182189628890338,-0.021038782678239346,0.12422570170192562,-1.3126380971238396
1.166430260091153,7.159833151793411,-0.020079024572937396,0.11110563616045256,-1.221938635288976
1.1627157730825437,7.1399453555854215,-0.01902083867558123,0.09823958708153266,-1.1222356665605344
1.1592132389500844,7.122476981437302,-0.017847941666095435,0.08563803553025184,-1.013525026247668
1.1559464734689862,7.107377252251812,-0.016539063398096982,0.07330648221175205,-0.8960543082808669
1.1529440337733232,7.094595018407539,-0.015065564977301715,0.06124334772795749,-0.770408435622048
1.1502409708640637,7.084080245833658,-0.01338772880437737,0.04943846883920185,-0.6375897407376001
1.1478815099445485,7.075785576337925,-0.011448701927361667,0.03787384164219793,-0.499059749101913
1.145923364660971,7.069667224934285,-0.009163353689244667,0.02652985734348958,-0.3566918217977731
1.1444455808535716,7.065683477066127,-0.006392265336012672,0.015404330742403225,-0.2125785368016474
1.1435674927908859,7.06378553841272,-0.0028507669027850735,0.00457397087241772,-0.0686664605685833
