x,y,v_x,v_y,omega
2.375,32.48,0.0,3.7948717948717947,-7.63265306122449
2.372571039937502,31.694624903524442,-0.023132952976171954,3.6848910287049246,-7.012414861690207
2.3657304791141316,30.931723505901214,-0.04201524534163915,3.580836567706762,-6.468770506870432
2.3552914272322614,30.19010544447203,-0.05740429639045974,3.4821925887616567,-5.989606942223891
2.341923344051555,29.46868189404026,-0.0699107815210316,3.3885078915409292,-5.565068214744947
2.326179555090507,28.76645315939236,-0.08003006572704195,3.2993848193914417,-5.187076250084324
2.3085189501063628,28.082498338199642,-0.08816617221718914,3.214470620539223,-4.848965637616391
2.2893232255965645,27.415966609560513,-0.0946502516856535,3.133450604595309,-4.545202338477814
2.268910679947558,26.766069818561704,-0.09975494497154985,3.0560426430124084,-4.271164970813274
2.2475473182162164,26.132076108376253,-0.10370564294599023,2.9819926920871103,-4.022973291297773
2.225455841023908,25.513304409596415,-0.10668937793313697,2.9110711058161347,-3.7973526375914166
2.2028229578100227,24.909119638900656,-0.10886189077053013,2.843069567476804,-3.591526024232652
2.1798053647472613,24.318928490535633,-0.11035328125577018,2.7777985121900826,-3.403127682082491
2.156534652402197,23.742175727660815,-0.11127255060198667,2.715084943760552,-3.2301333535794248
2.1331213510732185,23.17834089854744,-0.11171127157875793,2.6547705716049355,-3.070803773405187
2.1096582779438133,22.62693541646416,-0.111746567748911,2.59671021014057,-2.923638592923995
2.0862233163729864,22.087499952888418,-0.11144354244944235,2.5407703953426863,-2.7873386273103096
2.06288173135144,21.559602102216452,-0.11085726727957236,2.486828182485553,-2.6607747729610707
2.0396881045783717,21.042834282955994,-0.11003441627345799,2.434770096185458,-2.542962299586046
2.016687956421149,20.53681184587522,-0.10901461379532856,2.384491209345729,-2.4330394949912355
1.993919109206665,20.041171364046484,-0.10783155015213866,2.3358943318803416,-2.3302498518377783
1.971412836102542,19.555569083385556,-0.10651390798236575,2.2888892934618434,-2.2339271498203295
1.9491948317033538,19.079679515314094,-0.10508613391466498,2.2433923072187385,-2.1434829150280272
1.9272860339013211,18.61319415569312,-0.10356908324755057,2.1993254034572223,-2.0583958391158834
1.9057033213532433,18.155820316286892,-0.10198056006747702,2.156615924221116,-1.9782028206180757
1.8844601065928428,17.707280056796932,-0.10033577098395549,2.115196070921374,-1.9024913540321753
1.8635668413754167,17.267309207015003,-0.09864770727724542,2.0750024984303224,-1.830893042810853
1.8430314480193017,16.835656469930072,-0.09692746754289674,2.035975949997618,-1.7630780528819954
1.8228596882000088,16.41208259772512,-0.09518453073608368,1.9980609281447648,-1.6987503559087371
1.8030554787582187,15.9963596335467,-0.09342698775715504,1.9612053973640107,-1.6376436378453305
1.7836211625230294,15.588270212747432,-0.09166173829226838,1.9253605150099675,-1.5795177697245226
1.7645577408638184,15.187606918010381,-0.08989465846212051,1.890480387247655,-1.5241557550288076
1.7458650736174,14.794171683380334,-0.08813074388472097,1.8565218473242289,-1.4713610822381034
1.7275420511512811,14.407775242764838,-0.08637423198307961,1.8234442537757436,-1.4209554228304195
1.7095867425861513,14.028236618938525,-0.08462870673244141,1.7912093064748655,-1.3727766246313746
1.6919965235848642,13.655382649497415,-0.08289718851791167,1.7597808786785643,-1.3266769583538152
1.6747681865996904,13.289047546573592,-0.08118221134088656,1.7291248634530838,-1.2825215817523947
1.65789803603715,12.929072487441573,-0.07948588925473504,1.6992090330423328,-1.2401871912899123
1.6413819704360306,12.575305233431607,-0.07780997361307017,1.6700029099097278,-1.1995608357737193
1.6252155534476516,12.227599774816838,-0.0761559024667294,1.6414776483261702,-1.1605388702340003
1.609394075148511,11.885815999564947,-0.0745248432393737,1.6136059255013533,-1.1230260315127925
1.5939126049962602,11.549819384044028,-0.0729177296392024,1.586361841364553,-1.0869346197201304
1.5787660375540655,11.2194807039501,-0.07133529361979654,1.559720826196642,-1.0521837719788576
1.5639491319504026,10.894675763882546,-0.06977809308175217,1.5336595553991232,-1.0186988167936932
1.5494565459068332,10.575285144135833,-0.0682465359046253,1.508155870760054,-0.9864106990015228
1.5352828650515287,10.2611939634036,-0.06674090081255915,1.4831887076421573,-0.9552554666366928
1.5214413315214972,9.952294591238712,-0.06508322804488598,1.45871007488058,-0.920066627661887
1.5079434492291917,9.648483305824541,-0.06346803188183249,1.434730738587713,-0.8865331547816389
1.4947803782554479,9.349657178033691,-0.06189454882048929,1.4112323832299143,-0.8545571626821328
1.481943444681887,9.05571703413749,-0.06036196140389897,1.3881975586386628,-0.8240476558258352
1.4694241506644063,8.766567279471513,-0.05886941019115714,1.3656096286563688,-0.79491996657507
1.4572141821726667,8.482115732503996,-0.05741600401588459,1.3434527234152178,-0.7670952452459116
1.4453054147308655,8.202273468575644,-0.05600082876317475,1.3217116949500471,-0.7404999967403224
1.433689917450034,7.926954672639088,-0.054622954863793725,1.3003720758743025,-0.7150656590117798
1.4223599556031976,7.6560765003806,-0.05328144367750511,1.2794200408732173,-0.6907282191518345
1.4113079919610627,7.389558947155873,-0.051975352914256,1.2588423707908374,-0.6674278633521916
1.4005266870767514,7.127324724216528,-0.05070374122204242,1.2386264191076903,-0.645108657407572
1.390008898682861,6.869299141744698,-0.04946567205310498,1.2187600806240233,-0.6237182547861988
1.3797476803422293,6.615409998250293,-0.04826021690529245,1.1992317621798474,-0.6032076296135945
1.3697362794747967,6.365587475919348,-0.04708645802263654,1.1800303552577245,-0.5835308321969297
1.3599681348664674,6.1197640415329,-0.04594349062811862,1.1611452103274957,-0.5646447649661578
1.3504368737515513,5.877874352604078,-0.04483042475203485,1.1425661128041307,-0.5465089769286663
1.3411363085479249,5.63985516840707,-0.043746386711073,1.1242832605007145,-0.5290854749297036
1.3320604333132298,5.405645265595311,-0.0426905202860235,1.1062872424684076,-0.5123385501844597
1.3232034199810174,5.175185358128097,-0.041661987639807774,1.0885690191241089,-0.4962346187020449
1.3145596144275684,4.948418021244727,-0.04065997001208856,1.0711199035746342,-0.48074207435903027
1.3061235324129872,4.725287619243765,-0.039683668222017805,1.0539315440535646,-0.4658311535027023
1.2978898554339842,4.505740236841813,-0.03873230300658242,1.0369959073935933,-0.4514738100734949
1.2898534265203563,4.289723613901842,-0.037805115218444214,1.0203052634632885,-0.4376436003337312
1.2820092460024926,4.07718708333541,-0.03690136590406685,1.0038521705027323,-0.4243155763771742
1.2743524672731426,3.8680815119963796,-0.03602033628021863,0.9876294612975528,-0.41146618767212845
1.2668860649553624,3.662503593436057,-0.035088257222450736,0.9702554773721987,-0.42672236160385335
1.2596107497463103,3.460562107451633,-0.03420045905423522,0.9529967700985001,-0.4439447248518351
1.252517305147213,3.2622331849552353,-0.03335615617526275,0.9358501108195793,-0.46301834617853677
1.2455966865197616,3.0674936213980466,-0.03255449741951227,0.918812399248875,-0.4838314932427503
1.238840034130941,2.8763208503810347,-0.03179457295020955,0.9018806580559974,-0.5062753776040021
1.2322386848121833,2.6886929183570807,-0.031075420561767025,0.885052027886424,-0.5302439082614987
1.2257841823528088,2.504588460335416,-0.0303960314322769,0.8683237627960839,-0.5556334527074618
1.2194682867389461,2.3239866765029547,-0.029755355366415888,0.8516932260844959,-0.5823426045068502
1.2132829823411322,2.1468673096802497,-0.0291523055651449,0.8351578865126954,-0.6102719564406416
1.207220485146483,1.9732106235324736,-0.028585762955324504,0.8187153148947043,-0.6393238782681732
1.2012732491246982,1.8029973814578781,-0.02805458010929126,0.8023631810538108,-0.6694022981755673
1.1954339718111624,1.6362088260777945,-0.02755758478152705,0.7860992511374523,-0.7004124869819778
1.1896955991849902,1.4728266592532187,-0.027093583086780094,0.7699213852870707,-0.732260844173193
1.1840513299150377,1.3128330225535692,-0.02666136234133955,0.7538275356619591,-0.7648546848228566
1.1784946190426038,1.1562104781030804,-0.02625969358660335,0.7378157448188852,-0.7981020264449846
1.1730191811657935,1.0029419897296172,-0.025887333811588642,0.7218841444521873,-0.831911374797251
1.1676189931872745,0.8530109043394134,-0.025543027888593566,0.7060309545021464,-0.8661915076222888
1.1622882966844226,0.7064009334391983,-0.025225510233805162,0.6902544826427761,-0.9008512552735518
1.1570215999586382,0.5630961347245069,-0.02493350620223714,0.6745531241638036,-0.9357992771225366
1.1518136798188887,0.4230808936494199,-0.024665733223948508,0.6589253622655901,-0.970943832584756
1.1466595831533428,0.2863399048885711,-0.02442090168601329,0.6433697687901284,-1.0061925455320635
1.141554628342285,0.15285815359691668,-0.024197715562155095,0.6278850054161366,-1.0414521607779734
1.1364944065653826,0.022620896366291277,-0.02399487278929793,0.612469825351712,-1.0766282912296485
1.1314747830568206,-0.10438635822987408,-0.02381106538748397,0.5971230755641451,-1.1116251541943392
1.1264918983628882,-0.22817786962141895,-0.023644979316634247,0.5818436995933958,-1.146345295208346
1.1215421696582955,-0.34876768588409846,-0.02349529406044001,0.5666307410035673,-1.180689297622135
1.1166222921799054,-0.4661696651807077,-0.023360681924227644,0.5514833475355979,-1.2145554760252701
1.111729240839723,-0.5803974981555697,-0.023239807029889346,0.5364007760345098,-1.2478395514287173
1.1068602720829641,-0.6914647314539835,-0.023131323986861452,0.5213823982360877,-1.2804343059395276
1.1020129260619156,-0.7993847925574329,-0.023033876213600236,0.5064277075110292,-1.3122292144641623
1.0971850292021945,-0.9041710161474512,-0.022946093878981867,0.491536326679636,-1.343110050762833
1.0923746972450183,-1.0058366722366756,-0.022866591427458886,0.47670801702727117,-1.3729584649505107
1.0875803388573526,-1.1043949963349249,-0.02279396464554802,0.4619426886703589,-1.4016515293048115
1.0828006599114495,-1.1998592219520319,-0.022726787220196012,0.44724041244493146,-1.4290612490036365
1.0780346685465063,-1.2922426157778162,-0.022663606731644224,0.43260143351491254,-1.4550540341868778
1.0732816811381678,-1.3815585159240769,-0.022602940014436693,0.41802618692569765,-1.4794901295330167
1.0685413293166017,-1.4678203736641109,-0.02254326781000227,0.4035153153603092,-1.5022229973872767
1.0638135681911833,-1.5510417991629453,-0.022483028622554403,0.3890696893904652,-1.5230986504089485
1.0590986859597735,-1.6312366117570107,-0.022420611676587546,0.3746904305530393,-1.5419549297737196
1.0543973151035786,-1.708418895415484,-0.0223543488586024,0.3603789376228965,-1.5586207252479751
1.049710445395158,-1.7826030600978129,-0.022282505507308224,0.3461369164945482,-1.5729151340553345
1.045039438977953,-1.8538039098128607,-0.022203269894645723,0.331966414124948,-1.5846465565385666
1.040386047811607,-1.9220367182834792,-0.022114741213411233,0.3178698570237892,-1.5936117284090798
1.0357524338194917,-1.9873173132248638,-0.02201491585435225,0.30385009479893693,-1.5995946921975037
1.0311411921248375,-2.049662170351276,-0.021901671713782152,0.289910449262149,-1.6023657148419654
1.026555377821993,-2.109088518327269,-0.0217727502180715,0.2760547695568447,-1.6016801648520818
1.0219985368029452,-2.1656144559649206,-0.021625735677622077,0.2622874936588592,-1.5972773721421798
1.017474741251362,-2.219259083019246,-0.021458031480311987,0.24861371638231955,-1.5888795078451323
1.0129886305347688,-2.270042645921002,-0.02126683248724188,0.2350392636343942,-1.576190542231015
1.0085454583820588,-2.3179866996638623,-0.021049092776663194,0.2215707720118605,-1.5588953691928715
1.0041511474473084,-2.3631142867620554,-0.02080148755429249,0.20821577178045417,-1.5366592298365327
0.999812352662081,-2.4054501336090723,-0.02052036754311127,0.19498276961974104,-1.509127631536969
0.9955365352157692,-2.4450208635392556,-0.020201703374144137,0.18188132495342701,-1.475927050891212
0.9913320496559812,-2.4818552241877256,-0.019841016242884226,0.16892210979390698,-1.4366668410565606
0.9872082475969519,-2.515984324020458,-0.019433289081203533,0.15611693623214434,-1.3909429517020349
0.9831756030728593,-2.547441868687585,-0.018972849243488226,0.1434787272643333,-1.3383443328276976
0.9792458670158355,-2.576264381500053,-0.018453208442453788,0.1310213947591588,-1.2784632532864952
0.9754322622285465,-2.6024913830598138,-0.017866837150773657,0.11875957247665109,-1.2109112358606653
0.9717497364477734,-2.626165492104512,-0.017204836951827555,0.10670813271095103,-1.1353428802059955
0.9682153010688204,-2.647332392626417,-0.016456452371534893,0.09488139606912474,-1.0514904217557866
0.9648484990196462,-2.666040592532532,-0.015608329049171159,0.08329193637006158,-0.9592121837032412
0.9616720705262896,-2.682340881793756,-0.014643370887557763,0.07194891373684816,-0.8585574653734541
0.9587129254462989,-2.6962853972003487,-0.013538963207590182,0.060855994897338894,-0.7498475499380032
0.9560035951011716,-2.7079262469767755,-0.012264182936480024,0.05000924106864583,-0.6337652174609761
0.9535844482605322,-2.717313798421735,-0.010775310783895554,0.039396010788105784,-0.5114309795566966
0.951507190779175,-2.724495079754547,-0.009008093800459839,0.02899714476250359,-0.3844234894935795
0.9498408291284353,-2.729513474235503,-0.006862017158965595,0.018797088389450038,-0.25468302938451126
0.9486838699986508,-2.7324127327773127,-0.004156641219932616,0.00881489772303949,-0.12424004524108431
