x,y,v_x,v_y,omega
2.375,32.48,0.0,2.717948717948718,-6.408163265306122
2.3738662212229653,31.969020431162896,-0.011934513442472539,2.6607835855997006,-6.056401651779722
2.37061032189329,31.46870968419351,-0.022338111080425972,2.60564532986754,-5.733103976254237
2.365505443761167,30.978694347890794,-0.0313974482050776,2.5524108417400004,-5.435230721392021
2.358791635983116,30.498623361062236,-0.0392742126165109,2.5009679669816625,-5.160132198236013
2.3506802426461966,30.028166059923574,-0.04610887514053611,2.4512141502673996,-4.905490658650542
2.3413576381435552,29.56701046251553,-0.05202380383463544,2.403055296133076,-4.669272195732479
2.3309884197004136,29.11486175289827,-0.05712586398790804,2.3564048051012336,-4.449686566545312
2.3197181456598344,28.67144093493192,-0.06150859959713669,2.311182752439286,-4.245153469060917
2.3076756918607786,28.236483630977872,-0.06525407197187331,2.267315183919115,-4.054274108877033
2.2949752855245418,27.809739005222923,-0.06843441577798542,2.2247335082382405,-3.8758071254123396
2.281718265734445,27.390968794805058,-0.07111316095988042,2.1833739698445584,-3.7086481293385556
2.2679946112701783,26.979946434707372,-0.0733463597166082,2.1431771890784366,-3.551812245695409
2.253884269807753,26.576456264637272,-0.07518355041418605,2.104087759027869,-3.404419169786547
2.2394583169879083,26.180292807937104,-0.07666858453154439,2.0660538904476016,-3.265680332501879
2.2247799693364025,25.791260114068454,-0.07784033811588545,2.0290270976434504,-3.1348878433453726
2.209905471292258,25.40917115744362,-0.07873332550668868,1.9929619194600572,-3.011404937089587
2.1948848735114597,25.03384728639709,-0.07937823008066097,1.9578156705034242,-2.8946576966179114
2.17976271704307,24.665117716938767,-0.07980236432344176,1.9235482185315407,-2.784127862447296
2.164578635826706,24.30281906664148,-0.08003006953301887,1.8901217845978155,-2.679346570422963
2.1493678881585945,23.946794924613602,-0.0800830638155277,1.8575007630640563,-2.5798888845240984
2.1341618262568227,23.596895454014035,-0.07998074567680345,1.825651559036647,-2.485369012698889
2.1189883117756683,23.25297702399723,-0.07974045938798194,1.7945424411402697,-2.395436111012356
2.1038720840339216,22.91490186834384,-0.07937772736724395,1.7641434078427916,-2.309770595818315
2.0888350868004295,22.582537768348296,-0.07890645403793904,1.734426065794525,-2.2280808956971865
2.073896758694852,22.25575775780667,-0.07833910496813981,1.7053635188541683,-2.1501005849667183
2.0590742915910187,21.934439848183793,-0.0776868645458918,1.6769302666497754,-2.075585849021085
2.0443828608360586,21.61846677224323,-0.07695977498000667,1.6491021116719493,-2.0043132388667924
2.0298358306057214,21.307725744602223,-0.07616685902354259,1.6218560740228551,-1.9360776782299487
2.01544493729249,21.00210823783007,-0.07531622848415775,1.59517031305246,-1.8706906916951496
2.001220453457757,20.701509772845544,-0.07441518030250019,1.5690240552057004,-1.8079788266540657
1.9871713345638493,20.405829722490058,-0.07347028173863665,1.543397527483621,-1.7477822455171066
1.973305350428626,20.114971127260066,-0.07248744600055716,1.5182718959899772,-1.689953467777599
1.959629203108686,19.828840522277083,-0.07147199947249444,1.493629209094065,-1.63435624420021
1.9461588459033037,19.54735251680645,-0.07032123426837295,1.4694024274389328,-1.5773502701518622
1.9329077379849449,19.270424637059232,-0.06916411224066721,1.4456278856896405,-1.5228606112341785
1.919876813593368,18.99797245600656,-0.06800351293382594,1.4222898096016272,-1.4707470220041354
1.9070664914194875,18.729914476676008,-0.0668419836333379,1.39937313071999,-1.420878555726945
1.8944767344645095,18.466172001866866,-0.06568177378748284,1.376863446218374,-1.3731328491367825
1.8821071037040427,18.206669011234588,-0.06452486579637721,1.3547469814898012,-1.3273954696223174
1.8699568062091059,17.951332045242708,-0.06337300257137785,1.3330105552668363,-1.2835593187494097
1.8580247383038861,17.70009009552077,-0.06222771222041041,1.3116415470693514,-1.2415240866887685
1.8463095242764878,17.45287450120349,-0.06109033017325554,1.2906278667967739,-1.2011957526946162
1.8348095511027054,17.20961885085945,-0.0599620190244552,1.2699579262983665,-1.16248612729132
1.823522999593119,16.97025888964795,-0.05884378633961214,1.2496206127700176,-1.1253124322770602
1.8124478723297843,16.734732431370055,-0.057736500642858124,1.2296052638394221,-1.089596915054249
1.8015820187197404,16.50297927510502,-0.05664090577865704,1.2099016442135886,-1.055266494151954
1.7909231574579203,16.27494112614625,-0.05555763381945098,1.1904999237734546,-1.0222524331215281
1.7804688966612727,16.050561520971804,-0.054487216671575016,1.1713906570101906,-0.9904900402677843
1.7702167519085448,15.829785756003709,-0.053430096515034456,1.1525647637066063,-0.9599183919285418
1.7601641623958182,15.61256081992795,-0.05238663519787524,1.1340135107750782,-0.9304800772388353
1.7503085053962097,15.398835329363106,-0.051357122692739385,1.115728495170663,-0.9021209625156824
1.7406471091928002,15.188559467680452,-0.0503417847115714,1.097701627804632,-0.8747899735778082
1.7311772646366075,14.981684926791996,-0.04934078956414328,1.0799251183896323,-0.8484388944745508
1.721896235466005,14.778164851735436,-0.04835425433693495,1.0623914611531093,-0.8230221812414386
1.7128012675102198,14.577953787896636,-0.04738225046080369,1.0450934213605705,-0.7984967894284933
1.703889596887219,14.381007630720877,-0.04642480872867727,1.0280240225947703,-0.7748220142628179
1.6951584572952747,14.187283577773979,-0.045481923818105854,1.0111765347410144,-0.7519593424109032
1.6866050864876125,13.996740083023493,-0.04455355836781149,0.9945444626325329,-0.7298723143996098
1.678234479777041,13.809546963013474,-0.04355809121715322,0.9759094322097538,-0.7525339919931421
1.6700485282486226,13.625883777376202,-0.04260981960830229,0.9573872587089096,-0.7768554905699253
1.6620383854743532,13.445729366835845,-0.04170747275242796,0.9389749575053652,-0.8027197890384232
1.6541954501972929,13.269063127569883,-0.0408497406903124,0.9206696663468628,-0.8300122625016758
1.6465113733167873,13.09586498833973,-0.04003527910448278,0.902468641338951,-0.8586204229533313
1.6389780640030194,12.926115388343273,-0.03926271367202173,0.8843692533605964,-0.8884336648099316
1.6315876950252375,12.759795255708337,-0.03853064398884066,0.8663689849018976,-0.9193430141916024
1.6243327073724525,12.596885986547367,-0.037837647093104915,0.848465427318849,-0.9512408808663506
1.6172058142404162,12.437369424494271,-0.03718228061254074,0.8306562785032005,-0.984020811768104
1.6102000044542617,12.281227840644444,-0.036563085557506834,0.8129393409686804,-1.017577244985245
1.6033085453922982,12.128443913818387,-0.03597858877895424,0.7953125203582204,-1.051805263094444
1.5965249854730656,11.979000711068217,-0.035427305107702416,0.7777738243804041,-1.0866003446837191
1.5898431562648976,11.832881668344296,-0.0349077391888027,0.7603213621871933,-1.1218581128684348
1.5832571742748605,11.690070571236646,-0.03441838702211719,0.7429533442091363,-1.1574740795538863
1.5767614424720886,11.550551535702244,-0.03395773721758528,0.7256680824687874,-1.1933433841376138
1.5703506515991772,11.414308988684894,-0.03352427197095432,0.7084639913980396,-1.2293605252730342
1.564019781324453,11.281327648528976,-0.0331164677629857,0.6913395891905814,-1.2654190842326185
1.5577641012876526,11.151592505081823,-0.03273279578228191,0.6742934997268194,-1.301411438312997
1.5515791720917922,11.025088799371805,-0.032371722068880254,0.6573244551154671,-1.3372284626152404
1.5454608462948527,10.901802002739984,-0.03203170737258801,0.6404312989037124,-1.3727592184104636
1.539405269456375,10.781717795292558,-0.03171120671665151,0.623612990016572,-1.4078906261631912
1.5334088812961901,10.664822043528876,-0.03140866865371363,0.6068686074958741,-1.4425071211321838
1.5274684170253656,10.551100776985326,-0.03112253419707082,0.590197356120455,-1.4764902893005276
1.52158090891308,10.440540163718712,-0.030851235405936168,0.573598573001802,-1.5097184812041409
1.5157436881576407,10.333126484433485,-0.030593193598687302,0.5570717352637323,-1.542066401031587
1.5099543871352943,10.228846105034986,-0.030346817162854187,0.5406164689310012,-1.573404668160525
1.5042109421069672,10.12768544736537,-0.030110498924801506,0.5242325591702134,-1.6035993480812423
1.4985115964707303,10.029630957849701,-0.02988261303558626,0.5079199620473318,-1.6325114494418946
1.4928549046567394,9.934669073746186,-0.029661511322211155,0.49167881798966084,-1.6599963837431926
1.4872397367718246,9.842786186656337,-0.029445519045312094,0.47550946716663395,-1.6859033840271243
1.4816652841129905,9.753968602907353,-0.029232929995047004,0.4594124670331916,-1.710074878766724
1.4761310656830546,9.668202500369564,-0.02902200084638391,0.44338861231197607,-1.7323458171036987
1.4706369358577775,9.585473881215979,-0.02881094468284857,0.42743895772576157,-1.7525429416438345
1.4651830933724528,9.50576852006829,-0.028597923583727935,0.4115648438288624,-1.770484005272479
1.45977009181744,9.429071906903722,-0.02838104015324688,0.3957679263245,-1.7859769289884164
1.4543988518570692,9.355369184020145,-0.028158327850657437,0.3800502092921209,-1.7988188987087668
1.4490706754153875,9.284645076273211,-0.02792773995651865,0.364414082780863,-1.8087954005622566
1.4437872621062988,9.216883813710563,-0.027687136981256258,0.3488623652470254,-1.815679196637033
1.4385507282259846,9.152069045637127,-0.027434272285211118,0.3333983513154718,-1.8192292468725715
1.4333636286738949,9.09018374505738,-0.027166775631522245,0.3180258653134204,-1.8191895883402274
1.4282289822276195,9.031210102363431,-0.026882134329269843,0.3027493209386797,-1.8152881913392624
1.4231503006703794,8.97512940708544,-0.02657767153641581,0.287573787250702,-1.8072358236818524
1.4181316223634806,8.921921916514624,-0.026250521167781996,0.27250506086313997,-1.79472497187696
1.4131775509786175,8.8715667100813,-0.02589759867288211,0.2575497436981475,-1.7774288929703044
1.408293300270053,8.82404152857135,-0.025515566680429588,0.24271532482764369,-1.7550009068630414
1.4034847459958748,8.779322597669122,-0.02510079410039431,0.22801026361687168,-1.7270740907029674
1.3987584864246316,8.73738443603522,-0.024649306649533274,0.21344406937157215,-1.6932616110032512
1.3941219133427114,8.698199649328515,-0.024156725791733197,0.1990273696463799,-1.653158034596492
1.3895832961952848,8.661738713501315,-0.023618191549598298,0.18477195485046685,-1.6063421086167875
1.3851518830881768,8.627969753671348,-0.02302826220943243,0.1706907802018255,-1.5523817080937443
1.3808380240720757,8.596858329361602,-0.02238078006531648,0.15679789674286593,-1.490841935675299
1.376653324779823,8.568367243483369,-0.021668686168922452,0.1431082703964231,-1.4212977382673118
1.3726108426571877,8.542456401776807,-0.020883757227238148,0.12963743177791665,-1.3433528839460773
1.3687253446047742,8.519082762046807,-0.020016222271850174,0.11640088116946327,-1.2566676829936458
1.3650136552042071,8.49820042830234,-0.019054192470960834,0.10341315824597537,-1.160998302924753
1.361495140915386,8.479760961787928,-0.017982800042945845,0.09068648927414298,-1.0562505655301322
1.3581924008430943,8.463713992446891,-0.01678288492854482,0.07822897747359761,-0.9425499564741517
1.3551322738688902,8.450008205268741,-0.015428977957814595,0.0660424665069324,-0.8203258002557943
1.3523473346706782,8.438592715441196,-0.013886171497049286,0.05412058430933568,-0.6903990529860267
1.3498781623784282,8.429418680459833,-0.012105115789793269,0.042448204968191815,-0.554048171093706
1.3477769104478723,8.422440639911901,-0.01001332558448009,0.031004853431083692,-0.41300790410046945
1.3461134271604764,8.417616342516947,-0.007497024809159515,0.019777224410534158,-0.26934209246659613
1.3449881013622833,8.414901847358966,-0.004348509908662625,0.008796408831392849,-0.12514196903177013
