x,y,v_x,v_y,omega
2.375,32.48,0.0,2.4615384615384617,-4.326530612244898
2.3743883930542746,32.04113315545707,-0.006795632730282791,2.414759811160781,-4.118403289535836
2.3726239330019205,31.610561328409894,-0.01280947896253827,2.3693716004744485,-3.9247334675983274
2.3698397977239667,31.188040566475518,-0.01812535745917052,2.32530353212973,-3.744184892213593
2.366154957405702,30.773339120960337,-0.022817312743771898,2.282490306927841,-3.5755697094474144
2.3616758198759134,30.36623659076062,-0.02695088203165708,2.2408711397356638,-3.417829482091238
2.3564976643607025,29.96652314790251,-0.030584179248466178,2.200389336465568,-3.270018949623232
2.3507058939288368,29.57399883458495,-0.03376882555003979,2.1609919226184604,-3.131292088673965
2.344377132085093,29.18847292314383,-0.03655075049155919,2.1226293156161957,-3.000890110330335
2.3375801850010416,28.809763331631117,-0.038970883775677485,2.085255034525035,-2.878131094291313
2.3303768875915125,28.43769608875526,-0.041065754107979024,2.0488254418734178,-2.7624010112899513
2.3228228489181895,28.072104842802734,-0.04286800892894153,2.0132995131546294,-2.6531459269100672
2.314968110125902,27.712830409889683,-0.04440686654091862,1.9786386303237051,-2.5498652139499796
2.306857726209922,27.359720357504045,-0.045708510303309136,1.944806396183375,-2.4521056283689817
2.298532281308234,27.01262861981455,-0.04679643304878117,1.9117684670332455,-2.359456126804991
2.2900283458584645,26.671415141659967,-0.04769173861531991,1.8794924013510206,-2.271543322625045
2.2813788828121786,26.335945548504284,-0.048413406343412735,1.8479475226010114,-2.18802749321596
2.2726136091248716,26.0060908399619,-0.04897852351555163,1.8171047945365697,-2.1085990643383212
2.2637593179098188,25.68172710477053,-0.049402489985038905,1.78693670758977,-2.032975508330801
2.2548401659346777,25.362735255325582,-0.049699198627638635,1.7574171751318908,-1.9608986021473578
2.245877930532256,25.04900078009434,-0.04988119473260163,1.7285214385485965,-1.8921319989468592
2.236892239475194,24.74041351240611,-0.04995981701252993,1.70022598020947,-1.8264590734840782
2.2279007769153747,24.436867414269834,-0.04994532254101786,1.6725084435269462,-1.7636810070772315
2.2189194681016002,24.13826037400657,-0.04984699761203329,1.6453475593982179,-1.7036150826172154
2.2099626452543264,23.844494016604003,-0.049673256246567925,1.6187230784080913,-1.6460931640744725
2.201043196686287,23.55547352580537,-0.049431727842754875,1.592615708243395,-1.5909603383637794
2.1921727010062044,23.271107477038562,-0.04912933526927374,1.567007055832233,-1.538073700338382
2.1833615480239703,22.991307680373847,-0.048772364533329574,1.5418795737756872,-1.4873012641800478
2.1746190477851113,22.715989032772224,-0.04836652700954761,1.5172165106867876,-1.43852098659498
2.1659535289960425,22.445069378952066,-0.04791701509121476,1.4930018650927497,-1.3916198890707139
2.157374692840222,22.17847190871402,-0.04740338664012582,1.4691922486633153,-1.3447916617600948
2.148890476439744,21.91612238327853,-0.04686568447629667,1.4458024783976833,-1.2999462196901812
2.140504923298852,21.657946496031016,-0.04630712820028102,1.4228184910191206,-1.2569773083479199
2.1322215252432857,21.403872417825728,-0.04573062797267614,1.400226822372996,-1.2157854415244576
2.124043275492864,21.153830692066137,-0.045138813698677824,1.378014574955795,-1.1762774009958674
2.1159727167401923,20.90775413544003,-0.04453406133100931,1.3561693875565088,-1.138365778170567
2.1080119847269323,20.665577743943583,-0.04391851659409914,1.33467940684846,-1.1019685537695452
2.1001628477576126,20.42723860385666,-0.04329411639834252,1.313533260783995,-1.0670087120127003
2.092426742545262,20.192675807356938,-0.04266260818333258,1.29272003365737,-1.033413886145669
2.084804806742531,19.961830372483625,-0.042025567402566716,1.2722292427127742,-1.0011160324621624
2.0772979084758023,19.734645167182833,-0.04138441333886423,1.2520508161849018,-0.9700511302619391
2.0699066731675777,19.51106483718599,-0.04074042341918411,1.2321750726689515,-0.9401589054384147
2.0626315079037085,19.29103573749049,-0.04009474617936509,1.2125927017254725,-0.911382575616239
2.055472623576375,19.074505867228208,-0.03944841301323099,1.1932947456332255,-0.8836686149612211
2.048430055010821,18.861424807722294,-0.03880234882625645,1.174272582210252,-0.8569665369655641
2.0415036792633363,18.651743663546696,-0.0381573817013497,1.1555179086297194,-0.83122869367297
2.034693232259637,18.44541500641536,-0.037514251673085836,1.1370227261629073,-0.8064100899529469
2.027998323926352,18.24239282173987,-0.03687361869674847,1.1187793257869831,-0.78246821156351
2.021418451953575,18.04263245770504,-0.036236069889660605,1.1007802746000188,-0.7593628658580615
2.0149530143132117,17.846090576721927,-0.03560212611438,1.0830184029900978,-0.7370560340970542
2.0086013206459516,17.652725109126976,-0.03497224796628578,1.0654867925093643,-0.7155117344193603
2.0023626026190247,17.46249520900446,-0.03434684122179381,1.0481787644075398,-0.6946958946132356
1.9962360233472591,17.27536121201733,-0.03372626179782099,1.0310878687827851,-0.6745762339033864
1.9902206859613265,17.0912845951389,-0.03311082026809697,1.0142078743108645,-0.6551221530398069
1.9843156413992293,16.91022793818445,-0.032500785977428906,0.9975327585163895,-0.6363046320365434
1.9785239540415265,16.732379736114638,-0.03185129577482338,0.9785583755926216,-0.6674752427401335
1.9728455696165819,16.55793731001299,-0.03124186450233832,0.959690803314572,-0.6999884967902192
1.967273382463566,16.38688167568437,-0.030671326086728422,0.9409273558922774,-0.7337361915837305
1.961800499908633,16.219194322628134,-0.030138480079195125,0.9222654558436763,-0.768611761062786
1.9564202480954673,16.054857194796355,-0.029642095622642913,0.9037026311760988,-0.8045100419632585
1.951126177137088,15.893852671825123,-0.02918091502601878,0.8852365129487221,-0.8413270416506231
1.945912065657553,15.736163550670312,-0.02875365696881257,0.8668648332158356,-0.8789597065419005
1.9407719247883146,15.581773027579054,-0.02835901935605861,0.8485854233537111,-0.9173056900918983
1.9357000016805332,15.430664680327293,-0.027995681841512753,0.8303962127769766,-0.9562631192933018
1.9306907825917317,15.282822450652532,-0.027662308034060102,0.8122952280537242,-0.9957303586030295
1.9257389956026831,15.138230626808802,-0.02735754739981248,0.7942805924321649,-1.0356057701611314
1.920839613018422,14.996873826168308,-0.02708003686975659,0.7763505257955471,-1.0757874691127567
1.915987853505727,14.858736977790738,-0.026828402160186823,0.7585033450663383,-1.1161730727776635
1.9111791840183676,14.723805304877082,-0.026601258810473344,0.7407374650853981,-1.1566594423346201
1.90640932156083,14.592064307019655,-0.026397212939946447,0.7230513999971346,-1.1971424155989856
1.9016742348411837,14.463499742153935,-0.02621486172279005,0.7054437651775177,-1.2375165293698642
1.8969701458642207,14.338097608110601,-0.026052793576795956,0.6879132797484304,-1.2776747297075164
1.8922935315170355,14.215844123657604,-0.02590958805859765,0.6704587697293003,-1.317508068371202
1.8876411252008534,14.096725708912281,-0.02578381545453588,0.6530791718853898,-1.3569053835013725
1.8830099185652147,13.980728964991844,-0.025674036052561723,0.6357735383417072,-1.395752962467248
1.8783971634035987,13.867840652757273,-0.02557879907650356,0.6185410420424005,-1.4339341846206397
1.8738003737733535,13.758047670490146,-0.02549664125955465,0.6013809831479132,-1.4713291414990979
1.8692173284073914,13.651337030323962,-0.025426085028911687,0.58429279647635,-1.507814231806285
1.864646073490666,13.547695833231042,-0.025365636268037076,0.5672760601116517,-1.5432617282659953
1.8600849258810177,13.447111242342228,-0.025313781616943743,0.5503305053196135,-1.5775393132008313
1.8555324768617227,13.349570454349422,-0.02526898526411268,0.533456027933763,-1.6105095794314892
1.8509875965221094,13.255060668709657,-0.025229685176035858,0.5166527013969635,-1.6420294928349384
1.8464494388731043,13.163569054333486,-0.02519428870179606,0.4999207916716103,-1.671949812650583
1.8419174478167077,13.075082713399489,-0.025161167480389084,0.4832607742617026,-1.700114465399569
1.837391364102401,12.989588641889767,-0.025128651567465698,0.4666733536240748,-1.7263598681088201
1.832871233419627,12.90707368638807,-0.02509502268557424,0.4501594852836802,-1.7505141964449549
1.8283574157940503,12.827524496621749,-0.025058506487503428,0.43372040100879017,-1.7723965934175896
1.8238505964766762,12.750927473160854,-0.02501726370554082,0.4173576374456065,-1.7918163145841788
1.819351798539595,12.677268709611646,-0.02496938003980634,0.4010730686566865,-1.8085718062912293
1.814862397420618,12.606533928557933,-0.024912854615494185,0.38486894305122155,-1.8224497145799867
1.8103841376922596,12.538708410412323,-0.02484558681071103,0.36874792523334377,-1.8332238241989858
1.8059191523693214,12.473776914242489,-0.024765361221936392,0.3527131433203493,-1.8406539300319185
1.8014699851152116,12.411723589538003,-0.024669830490394076,0.3367682422850587,-1.8444846476418457
1.7970396157620465,12.352531877786891,-0.02455649565588652,0.32091744383838944,-1.8444441762339663
1.7926314896264248,12.296184402647746,-0.024422683628796172,0.30516561326323294,-1.840243037129727
1.7882495511858596,12.242662847448177,-0.02426552126637388,0.2895183333986501,-1.8315728252363555
1.7838982827867138,12.19194781873891,-0.02408190539080072,0.2739819855932044,-1.8181050320191137
1.7795827491933074,12.14401869472297,-0.023868467869271624,0.258563836806135,-1.7994900290594427
1.7753086489754946,12.098853457620596,-0.023621534550869967,0.24327213099801198,-1.7753563455994006
1.7710823739937893,12.056428509512322,-0.023337076356967957,0.2281161813161394,-1.7453104375054658
1.7669110786174742,12.016718472059406,-0.02301065004653276,0.21310645704959863,-1.7089372372677278
1.762802760867428,11.979695971931324,-0.022637324953981377,0.19825465548465396,-1.6658019066840493
1.7587663585174589,11.945331416062693,-0.02221159004567536,0.18357374305567348,-1.6154534014985509
1.7548118644877826,11.91359276442461,-0.021727232506282265,0.16907794181192567,-1.5574307204703144
1.7509504679013452,11.884445313380176,-0.021177174009687206,0.1547826253484639,-1.4912730728006744
1.7471947304005155,11.85785151059476,-0.02055324266619767,0.1407040722672677,-1.4165356763872954
1.7435588124657329,11.833770833631764,-0.019845845498055147,0.12685900509934186,-1.3328134920511625
1.7400587726946675,11.812159779264743,-0.01904348529156078,0.11326382120091286,-1.239775838048423
1.7367129760972597,11.792972028581104,-0.018132032457413537,0.0999334086172943,-1.137215290227002
1.7335426682242148,11.776158870648572,-0.017093610576420476,0.08687945729972056,-1.0251139976878312
1.7305728047088451,11.761669974852552,-0.015904872927687278,0.07410827376716111,-0.9037283577706088
1.7278332779468484,11.749454576248954,-0.014534313316720417,0.06161837738392442,-0.7736868297723074
1.7253607701452616,11.739463035338606,-0.012937995589801507,0.04939874384216382,-0.6360828290652646
1.7232016323042088,11.731648478773696,-0.011052424866339677,0.03742966243459939,-0.49252398971854694
1.7214166191521993,11.725967691938656,-0.008781054600429904,0.025690191288057846,-0.3450764565102254
1.7200897981976955,11.72237922881462,-0.005961400449614418,0.01418162120121279,-0.19603587155052463
1.7193516681442451,11.720832026995666,-0.002240044588722919,0.0030095101205264967,-0.04749864763551401
