x,y,v_x,v_y,omega
2.375,32.48,0.0,2.8205128205128203,-2.7346938775510203
2.374537966137569,31.977511461162145,-0.005133709582563931,2.7626931665744126,-2.587340952966797
2.3732108427713587,31.4852568074089,-0.009612105597551773,2.7068029862394476,-2.451653565458464
2.3711294765392568,31.002898108856176,-0.013514185870249301,2.652738108790817,-2.326419069572633
2.3683914224912064,30.530115504302575,-0.016908636885868106,2.6004019418047513,-2.210574680256962
2.3650826669525435,30.06660590130677,-0.019855313543718417,2.5497047581486223,-2.103186365681108
2.361279104986547,29.612081796999057,-0.022406486078463784,2.5005630674926214,-2.0034310557637807
2.3570478107685857,29.166270205525777,-0.024607894121106887,2.4528990599883014,-1.9105815931654093
2.3524481326602644,28.728911680053407,-0.02649964041579502,2.4066401119268845,-1.8239939616144643
2.347532639454543,28.299759418937835,-0.028116950758889793,2.361718344912808,-1.743096412442204
2.3423479399103138,27.878578447063155,-0.029490821954764105,2.318070231472529,-1.6673801789807507
2.336935394118068,27.465144864528057,-0.030648575736860712,2.275636241139683,-1.596391523752452
2.3313317322877416,27.059245155848014,-0.031614333488985395,2.2343605219718983,-1.529724908001544
2.3255695941073866,26.66067555368208,-0.032409424070512324,2.1941906132051585,-1.4670171093009072
2.319677999792562,26.26924145181016,-0.0330527349830968,2.1550771853717294,-1.4079421424247913
2.31368276225594,25.88475686270161,-0.03356101542381321,2.1169738047232465,-1.3522068627560355
2.3076068484137795,25.507043915545676,-0.033949138377968875,2.079836719231595,-1.2995471512494092
2.3014706964616494,25.1359323910726,-0.034230327756813464,2.043624663802591,-1.2497245962355072
2.2952924949563602,24.771259289892434,-0.034416355635287874,2.0082986826436833,-1.2025236007842683
2.289088428702117,24.412868431425682,-0.0345177138563016,1.9738219669869004,-1.1577488554815263
2.282872895730019,24.060610080803755,-0.034543763611457494,1.940159706590064,-1.115223125728677
2.276658699059587,23.714340601384013,-0.034502866060005404,1.9072789536292911,-1.0747853103942464
2.27045721642118,23.37392213075904,-0.034402496588963875,1.8751484977592552,-1.0362887351009458
2.2642785506842698,23.039222278347417,-0.0342493449322623,1.8437387512588004,-0.9995996488446918
2.2581316633665174,22.71011384283696,-0.034049403042762924,1.813021643301814,-0.964595897193363
2.252024493282269,22.386474547914837,-0.033808042337775505,1.7829705224996024,-0.9311657491498646
2.2459640621181767,22.06818679486403,-0.03353008170769323,1.753560066953795,-0.8992068580066266
2.239956568491133,21.75513743073559,-0.03321984748168069,1.7247662011399696,-0.8686253392656759
2.2340074718437455,21.447217530921783,-0.03288122637818279,1.6965660190134264,-0.8393349510310935
2.228121567360311,21.144322195059367,-0.03251771232664076,1.668937712791203,-0.8112563642660221
2.2223030529375505,20.846350355285388,-0.03213244792625774,1.6418605069197099,-0.7843165119998832
2.2165555891157664,20.55320459595185,-0.03172826120467434,1.6153145967862454,-0.7584480080191075
2.2108823527647314,20.26479098398125,-0.031307698251267245,1.5892810917759779,-0.7335886268147725
2.2052860852219403,19.98101890911311,-0.0308730522241913,1.5637419623144557,-0.7096808376249806
2.1997691354968825,19.70180093335351,-0.03042638916534204,1.5386799905699633,-0.6866713863253127
2.1943334990818646,19.427052648995364,-0.029969571001521037,1.5140787245205818,-0.6645109197096
2.188980852846157,19.15669254462788,-0.029504276061897056,1.4899224351181057,-0.6431536473843676
2.1837149073975186,18.89064259986592,-0.029006228922975337,1.4661880622369998,-0.6215584340889727
2.1785385843319984,18.628827406158575,-0.028508471805025866,1.4428696456224162,-0.6008735240175567
2.1734517524585906,18.37117333466892,-0.028011882343952278,1.4199533709292917,-0.5810503575915519
2.168454132099816,18.117609190959335,-0.027517232753541603,1.3974260036216495,-0.5620434531672788
2.1635453130879503,17.86806611339169,-0.027025200711630903,1.3752748582410736,-0.5438101807677966
2.158724770903789,17.622477476885166,-0.026536379112382907,1.3534877696091843,-0.5263105546711337
2.153991881150925,17.3807788016963,-0.02605128480832934,1.332053065822633,-0.5095070431014826
2.149345932537535,17.142907666910283,-0.02557036645156023,1.3109595429109124,-0.49336439344958305
2.144786138519113,16.908803628354885,-0.025094011530907723,1.290196441037949,-0.4778494716080802
2.140311647739144,16.678408140669035,-0.024622552690965818,1.269753422138139,-0.4629311141495656
2.135921553390138,16.451664483276836,-0.024156273409107462,1.2496205488862913,-0.44857999220138817
2.1316149016044856,16.228517690035265,-0.023695413098137136,1.229788264908948,-0.43476848598401346
2.12739069897313,16.008914482339794,-0.02324017169470468,1.2102473761518555,-0.42147056908030556
2.1232479192797786,15.792803205486877,-0.02279071378697718,1.1909890333249968,-0.40866170159301823
2.1191855095293217,15.580133768105885,-0.02234717232921043,1.172004715352674,-0.3963187314282363
2.1152023953409813,15.370857584485595,-0.021909651985684096,1.153286213761667,-0.38441980301458073
2.1112974857695,15.164927519631945,-0.02147823214188217,1.1348256179455636,-0.37294427283262765
2.107469677611224,14.962297836904526,-0.021052969616740528,1.1166153012479951,-0.3618726311870222
2.103717859246161,14.762924148089148,-0.02063390110618277,1.09864790781176,-0.35118642970592356
2.100040914061957,14.566763365773067,-0.020221045384969792,1.0809163401447113,-0.34086821409934226
2.096437723501116,14.373773657897924,-0.019814405291049015,1.0634137473568646,-0.33090146175019064
2.0929071697686554,14.183914404373425,-0.019413969514064322,1.046133514026457,-0.32127052374996967
2.08944813823372,13.997146155642028,-0.01901971420744037,1.0290692496557166,-0.31196057102539404
2.0860595195553193,13.813430593091827,-0.018631604441453162,1.0122147786798694,-0.30295754423331694
2.0827402115594267,13.632730491221047,-0.018249595512914003,0.9955641309954717,-0.2942481071293947
2.0794918911390647,13.455228255571168,-0.017842853602217493,0.9766829317809554,-0.33385220431160856
2.0763131997662123,13.281115441300443,-0.01747593942947614,0.9579038934493113,-0.3746028165906071
2.0731970809886024,13.110373887257897,-0.01714760254396626,0.9392244848011991,-0.41640056400297576
2.0701367054334714,12.942985879133879,-0.016856570290824095,0.9206422721323473,-0.4591473695716991
2.067125474521371,12.778934132124554,-0.016601550954735762,0.9021549168601429,-0.502746244514663
2.064157023644657,12.618201773992975,-0.016381236564308153,0.8837601734907189,-0.5471010738566368
2.061225224870032,12.460772328465257,-0.01619430537597121,0.865455887928361,-0.592116401499053
2.058324189221361,12.30662969889984,-0.016039424053702574,0.8472399961318191,-0.6376972137721573
2.055448268596277,12.155758152166722,-0.015915249558346896,0.8291105231250531,-0.6837487204561308
2.0525920573678236,12.008142302671885,-0.015820430757799115,0.811065582373128,-0.7301761322109813
2.049750393720609,11.863767096459934,-0.015753609766808077,0.7931033755374378,-0.7768844332986553
2.0469183607695616,11.722617795325021,-0.015713423022607597,0.7752221926282509,-0.8237781484141268
2.0440912875085298,11.584679960856569,-0.015698502099967027,0.7574204125767886,-0.8707611023642355
2.0412647496355443,11.449939438341818,-0.015707474266542187,0.7396965042537528,-0.9177361712427256
2.038434570301664,11.318382340441996,-0.015738962776566286,0.7220490279664932,-0.96460502364609
2.0355968208309614,11.189995030552446,-0.0157915868979124,0.7044766374729552,-1.011267850356159
2.032747821460358,11.064764105749724,-0.015863961664343756,0.686978082557286,-1.0576230807804272
2.02988414214985,10.942676379219801,-0.015954697341300277,0.6695522122196379,-1.1035670842883825
2.0270026035160513,10.823718862051305,-0.016062398589799378,0.6521979785414527,-1.1489938544099094
2.0241002779451684,10.707878744265798,-0.016185663308899614,0.6349144412975136,-1.193794673668559
2.0211744909454312,10.595143374943245,-0.016323081132623932,0.6177007733975322,-1.2378577566064037
2.0182228228037977,10.485500241284676,-0.016473231552193556,0.6005562672532238,-1.2810678683168617
2.015243110617508,10.378936946435505,-0.01663468162880256,0.5834803421820122,-1.3233059155360085
2.012233450777887,10.275441185871284,-0.016805983255874873,0.5664725529759903,-1.3644485070508532
2.0091922019918167,10.1750007221228,-0.01698566992268436,0.5495325997849227,-1.4043674798650168
2.0061179889356815,10.07760335758848,-0.017172252923263766,0.5326603394853003,-1.4429293872199023
2.003009706647489,9.983236905148726,-0.017364216945540505,0.5158557987341907,-1.479994944206588
1.9998665257754995,9.891889156258287,-0.01756001496545446,0.4991191889373432,-1.5154184263274844
1.9966878988162766,9.80354784614827,-0.01775806235924508,0.48245092339619,-1.5490470159893173
1.993473567491892,9.718200615718146,-0.017956730133916354,0.46585163693850706,-1.5807200915495228
1.990223571435365,9.635834969639216,-0.018154337160825738,0.4493222083829467,-1.610268453226553
1.9869382583756856,9.55643823012327,-0.018349141280059465,0.4328637862386665,-1.637513479966198
1.983618296039381,9.47999748573299,-0.018539329123324823,0.4164778180977595,-1.6622662112986222
1.980264686015086,9.406499534522638,-0.018723004479951375,0.40016608423949984,-1.6843263484248532
1.9768787798615761,9.335930820698383,-0.01889817500349356,0.3839307360299869,-1.7034811693849596
1.9734622977790734,9.268277363876788,-0.019062737024312357,0.36777433976551793,-1.719504354400406
1.970017350209348,9.203524679897821,-0.01921445819485968,0.35169992666744565,-1.732154719668395
1.9665464627835874,9.141657692017453,-0.019350957646925293,0.33571104978108035,-1.7411748614825335
1.963052605100132,9.082660631168007,-0.019469683280357634,0.319811848546098,-1.7462897182444757
1.9595392238896228,9.026516923839885,-0.019567885725300608,0.30400712176637223,-1.7472050667158285
1.9560102812168934,8.973209066019226,-0.019642588416135788,0.2883024095742871,-1.7436059822065537
1.9524702984830442,8.922718481534766,-0.019690553071077466,0.2727040846974881,-1.7351553124614527
1.9489244071369034,8.875025363159985,-0.019708239663819606,0.25721945280006203,-1.7214922449581855
1.9453784071973166,8.830108494941424,-0.019691759664922776,0.24185686073949347,-1.7022310918205679
1.9418388349502773,8.787945054571924,-0.01963682085773586,0.2266258100327346,-1.676960482392414
1.9383130415568897,8.748510395339899,-0.01953866129101584,0.2115370703230865,-1.645243250628373
1.93480928485406,8.711777808479194,-0.019391968740425803,0.19660278368474068,-1.6066174471162311
1.9313368374571573,8.677718268945263,-0.01919078011404866,0.1818365444700473,-1.5605991138830984
1.927906115562671,8.646300171234795,-0.018928352046906984,0.16725343009071886,-1.506687761505622
1.9245288349014085,8.617489067536361,-0.018596988633791597,0.15286994433630693,-1.4443759170231911
1.9212182036164158,8.591247429180811,-0.018187803421681897,0.13870381516980848,-1.3731647050086346
1.9179891672828375,8.567534465184433,-0.01769037806252105,0.12477356256772248,-1.2925882059539469
1.9148587302549678,8.546306049706608,-0.017092255580476837,0.11109772051922512,-1.2022502681590896
1.9118463923171802,8.527514833610098,-0.016378165950495377,0.09769356944199303,-1.1018783213081562
1.9089747639322168,8.511110641061883,-0.015528816104654185,0.08457523664928332,-0.991398930715959
1.9062704631778378,8.497041269459995,-0.014518970055111649,0.07175111448279449,-0.8710378746243681
1.9037654629095462,8.4852537923033,-0.013314366259238944,0.05922085392491979,-0.7414405443754348
1.90149916906792,8.475696351529383,-0.011866676425499274,0.04697293245196138,-0.6037921428805573
1.89952173257247,8.468320112181495,-0.010104840190610165,0.034985282524575514,-0.45988843370951216
1.89789966945014,8.46308034845157,-0.007918083390833112,0.023234314474583927,-0.3120733517474716
1.8967269652518035,8.459933947131205,-0.00511196325735225,0.011725700196149939,-0.16294572662751763
1.8961574018670033,8.45882305797813,-0.0012165187959826953,0.0006175126157812287,-0.01481180997940501
