x,y,v_x,v_y,omega
2.375,32.48,0.0,3.3846153846153846,-8.0
2.3733789423970477,31.877928983476284,-0.018011751143915625,3.3050625767592128,-7.492494312676611
2.368752020011014,31.289877699381492,-0.033398497589791826,3.228840579849593,-7.033266509263573
2.3615585703226154,30.715267705393334,-0.04652872117019129,3.1557149089077106,-6.616329128295404
2.3521767102580915,30.15356058098617,-0.05771416843563157,3.0854753622830002,-6.236581020702087
2.3409326676144455,29.60425387068981,-0.0672196387159877,3.0179325298987716,-5.889656003310416
2.328108521863736,29.066877597766133,-0.07527086962523201,2.952914947030953,-5.571800848911623
2.3139486592543266,28.54099124492807,-0.08206093714598175,2.890266751169776,-5.279776221573091
2.2986651812958154,28.02618112116542,-0.08775548461525487,2.829845735081909,-5.010775717706466
2.282442455848158,27.522058050655442,-0.09249702035871545,2.771521715028939,-4.762359309128719
2.2654409618189817,27.028255332616524,-0.0964084688543542,2.715175152070153,-4.532398325931529
2.247800548875171,26.544426930869765,-0.09959611941021133,2.660695978449367,-4.319029747711807
2.229643210433926,26.070245859565002,-0.10215208549250858,2.607982591603562,-4.120618049373481
2.2110754499509846,25.60540273755409,-0.10415636431795389,2.556940986295463,-3.9357232129024986
2.1921903060235173,25.149604488657463,-0.10567856820945745,2.507484001444828,-3.763073798175812
2.1730690902221723,24.702573168866174,-0.10677938513882386,2.459530662902834,-3.6015441848518397
2.153782882222921,24.264044904571836,-0.10751181485285712,2.4130056070342385,-3.45013526891638
2.1343938192413363,23.83376892838666,-0.10792221827585795,2.367838572801057,-3.307958032733054
2.1149562106096447,23.411506701130335,-0.10805121096516321,2.323963952269223,-3.1742195148114094
2.0955175032948494,22.997031110215676,-0.1079344258658959,2.281320391226959,-3.048210791220893
2.076119120012209,22.59012573603384,-0.10760316616344369,2.2398504330156332,-2.92929664938675
2.056797188168214,22.19058417907954,-0.1070849654365006,2.199500199809946,-2.816906690523063
2.0375831750336086,21.798209441511244,-0.10640406939244683,2.160219106504451,-2.71052764197051
2.0185044421908063,21.412813357645625,-0.10558185108313341,2.1219596031135453,-2.609696697365189
1.9995847303342043,21.034216068566742,-0.10463716954577694,2.084676942207351,-2.5139957325473126
1.9808445838564817,20.66224553661085,-0.10358668020669767,2.0483289684136787,-2.423046269739121
1.9623017232725881,20.29673709598423,-0.10244510405878458,2.0128759274376486,-2.336505082815807
1.943971372370116,19.937533036198644,-0.10122546152423986,1.9782802924022194,-2.25406035328208
1.9258665459929007,19.584482215377733,-0.09993927600037376,1.9445066056079074,-2.1754283005035244
1.9079983035336767,19.237439700807734,-0.0985967513243384,1.9115213340587136,-2.1003502213485414
1.8903759725064817,18.89626643438437,-0.09720692675560601,1.879292737312031,-2.0285898840932246
1.8730073459698056,18.560828920851215,-0.09577781254079491,1.8477907463896628,-1.9599312295665627
1.8558988570602646,18.230998936938512,-0.0943165086763283,1.8169868526404,-1.8941763393411761
1.8390557334598667,17.906653259699013,-0.09282930910587141,1.7868540055762103,-1.8311436365283307
1.822482134246068,17.587673412503584,-0.09132179326966958,1.7573665188174927,-1.7706662895971275
1.8061812712531116,17.273945427305723,-0.08979890665206784,1.7284999833809445,-1.7125907937554916
1.7901555167974998,16.96535962191485,-0.08826503174361866,1.7002311876287268,-1.656775707927167
1.7744064993830944,16.661810391133805,-0.08672405063866212,1.6725380432717754,-1.6030905283351802
1.7589351887965794,16.363196010719708,-0.0851794003226148,1.6453995168848923,-1.551414682241435
1.743741971827065,16.069418453219743,-0.08363412156087983,1.6187955664480365,-1.50163662756327
1.7288267196904301,15.78038321481639,-0.08209090217950724,1.5927070824781369,-1.4536530459483374
1.714188848106175,15.49599915239098,-0.08055211542332935,1.5671158333597337,-1.4073681184868276
1.6998273708591887,15.216178330081657,-0.07901985398762965,1.542004414521613,-1.3626928746148332
1.6857409475784988,14.940835874672022,-0.07749596024225691,1.5173562011410204,-1.3195446059479539
1.6719279263776405,14.669889839201446,-0.07598205310061103,1.4931553040876033,-1.2778463378081815
1.6583946700025058,14.403264747316857,-0.07438746217866371,1.4693457168522608,-1.2348814103248802
1.6451459940599338,14.140887590808273,-0.07282004829435963,1.4459560221320025,-1.1937283556045875
1.6321769817601752,13.882684054684443,-0.07128008836962502,1.4229721570216485,-1.1542904193809433
1.6194826766620178,13.628582301418923,-0.0697677460543461,1.4003806570396942,-1.1164769917959845
1.6070581017754704,13.378512866142245,-0.06828308601840405,1.378168623812308,-1.0802031545435675
1.5948982762372863,13.13240855746329,-0.06682608662808613,1.356323694842758,-1.0453892658766142
1.582998229833611,12.89020436355866,-0.06539665119052936,1.3348340152087075,-1.0119605799432507
1.5713530156129294,12.651837363195963,-0.06399461792815551,1.3136882110434842,-0.9798468972808048
1.5599577208050506,12.417246641381773,-0.06261976882605363,1.2928753646697304,-0.948982243619617
1.5488074762376314,12.18637320934765,-0.06127183747860249,1.2723849912649736,-0.9193045744357006
1.5378974644203272,11.959159928608418,-0.05995051604700005,1.2522070169487092,-0.8907555029467672
1.5272229264477106,11.735551438845963,-0.058655461426515274,1.2323317581897002,-0.8632800494737978
1.5167791678553368,11.51549408938925,-0.057386300710974184,1.2127499024404576,-0.8368264102934501
1.5065615635484653,11.298935874077408,-0.05614263603204096,1.1934524899133614,-0.8113457442880335
1.4965655619097942,11.085826369307433,-0.05492404884208495,1.1744308964197054,-0.7867919758620465
1.4867866881808545,10.876116675081736,-0.05373010370168942,1.155676817199144,-0.7631216127395566
1.4772205472013598,10.669759358883272,-0.052560351626029345,1.1371822516726786,-0.7402935773869387
1.467862825581569,10.46670840221756,-0.05141433303831111,1.1189394890574702,-0.7182690509223542
1.4587092933745391,10.266919149671605,-0.050291580373131715,1.1009410947864766,-0.697011328478342
1.449755805307847,10.070348260349604,-0.04919162036789176,1.0831798976802107,-0.6764856850783133
1.4409983016278773,9.876953661554417,-0.04811397607621365,1.0656489778218547,-0.6566592511727382
1.4324328086039935,9.6866945045923,-0.04705816863360836,1.048341655090569,-0.6375008970574163
1.4240554387347577,9.499531122586145,-0.04602371880234426,1.0312514783111402,-0.6189811254653208
1.415862390693787,9.31542499018984,-0.04501014831955168,1.0143722149811425,-0.6010719716858969
1.4078499490487273,9.134338685102975,-0.04401698107000214,0.9976978415395767,-0.5837469106220938
1.4000232527645458,8.956459375891203,-0.042946310976457874,0.9787389274801268,-0.6166372496507312
1.3923842288987602,8.78198314506703,-0.041931731976714626,0.9598858594551284,-0.6508490326802936
1.3849229530656841,8.610891179169037,-0.04097133283524219,0.9411359838558909,-0.6862734839408525
1.3776298448418003,8.443165132686122,-0.04006320298568779,0.9224867548431817,-0.7228035379379142
1.3704956674480069,8.278787108914258,-0.03920543472313002,0.9039357315108677,-0.7603335979325309
1.3635115270638687,8.117739641288818,-0.03839612510062813,0.8854805754384766,-0.7987592966220115
1.3566688718254838,7.9600056751224955,-0.03763337754809393,0.867119048631787,-0.8379772579650528
1.3499594905555354,7.80556854967881,-0.03691530322910924,0.848849011853607,-0.877884859079452
1.343375511271509,7.654411980510478,-0.03624002214896307,0.8306684233500978,-0.9183799911164046
1.336909399515864,7.50652004199064,-0.03560566402486707,0.8125753379814128,-0.9593608179823616
1.3305539565501958,7.361877149963096,-0.03501036892700336,0.794567906769081,-1.0007255317370363
1.324302317454059,7.220468044434991,-0.034452287696741295,0.7766443768765421,-1.0423721034438473
1.3181479491682118,7.082277772232178,-0.03392958214600563,0.7588030920435874,-1.0841980281862194
1.3120846485215287,6.947291669533232,-0.033440425039360976,0.7410424935002516,-1.1261000628889892
1.306106540280778,6.8154953441930175,-0.03298299985786837,0.7233611213910238,-1.1679739554978807
1.3002080752628673,6.686874657760669,-0.032555500341139985,0.7057576167461801,-1.2097141639707236
1.2943840285500536,6.56141570708958,-0.03215612980123327,0.6882307240437028,-1.2512135634208847
1.2886294978500281,6.439104805428499,-0.03178310019905124,0.6707792944127566,-1.2923631396252877
1.2829399020447496,6.319928462872916,-0.03143463097071071,0.653402289538177,-1.3330516669655168
1.2773109799744782,6.203873366044327,-0.03110894758786114,0.6360987863350515,-1.3731653687099978
1.2717387895066785,6.090926356851565,-0.030804279832134247,0.6188679824734121,-1.412587557367503
1.2662197069434113,5.981074410172862,-0.030518859759722947,0.6017092028455133,-1.4511982526469642
1.2607504268255645,5.874304610279353,-0.03025091932746562,0.5846219070823583,-1.4888737743460752
1.2553279621978917,5.77060412580013,-0.029998687646676972,0.5676056982423257,-1.5254863072625786
1.2499496454054193,5.669960183005134,-0.02976038782523875,0.5506603328131822,-1.5609034349799074
1.2446131294994633,5.572360037154869,-0.029534233352049154,0.5337857321897606,-1.5949876391273485
1.2393163903404143,5.477790941634584,-0.02931842397071908,0.5169819958134146,-1.6275957604612776
1.2340577294947355,5.386240114554607,-0.02911114098126794,0.500249416186332,-1.6585784178694434
1.2288357780354793,5.297694702457463,-0.028910541899355456,0.4835884960041364,-1.6877793811817285
1.2236495013692483,5.212141740725521,-0.0287147543920983,0.46699996768411706,-1.7150348935034867
1.2184982052281825,5.129568110229602,-0.028521869397520643,0.45048481560388504,-1.7401729387084637
1.2133815429835277,5.049960489698712,-0.02832993332086549,0.43404430140601713,-1.763012449791273
1.2082995244580057,4.973305303223086,-0.028136939184934925,0.4176799927675946,-1.783362454062176
1.2032525264380127,4.899588662226979,-0.0279408165927655,0.4013937960780485,-1.801021151781491
1.1982413051142007,4.828796301163891,-0.027739420338480158,0.3851879935118342,-1.8157749259380882
1.1932670107109935,4.760913506096035,-0.027530517474933083,0.36906528501988695,-1.8273972827068012
1.1883312046030738,4.695925035223272,-0.027311772613063955,0.3530288357885989,-1.8356477250039616
1.1834358792612378,4.633815030327842,-0.027080731185113015,0.33708232971619656,-1.8402705659732759
1.178583481423254,4.574566918005878,-0.026834800348039478,0.3212300294167252,-1.8409936958573156
1.173776938950371,4.518163299474427,-0.02657122712843934,0.30547684315494916,-1.837527325522315
1.1690196919112512,4.464585827689387,-0.02628707330622368,0.28982839890105067,-1.8295627443140454
1.1643157285389687,4.413815070510299,-0.02597918638580426,0.27429112531102806,-1.8167711509558244
1.1596696268435294,4.365830358740716,-0.025644165785742645,0.258872338795437,-1.7988026467667444
1.1550866028482392,4.320609618117231,-0.025278323050814528,0.24358033479883168,-1.77528552474979
1.1505725666786033,4.278129184805749,-0.024877634389583427,0.22842447977317937,-1.7458260520189297
1.146134188108062,4.238363604824418,-0.024437683060876254,0.21341529779718335,-1.7100090349841675
1.141778973721301,4.201285419246961,-0.023953587903132966,0.1985645419523318,-1.6673995883071662
1.1375153586991171,4.166864939335472,-0.023419912343355984,0.18388523484200475,-1.6175467154704322
1.1333528175304857,4.135070019313506,-0.022830545085882396,0.16939165429096764,-1.5599895706435412
1.1293019999954004,4.105865839867608,-0.022178538637288244,0.15509922844122137,-1.4942676306924878
1.1253749019840438,4.079214723345789,-0.02145588371111812,0.14102428846788637,-1.4199364810123412
1.1215850858400527,4.055076012740553,-0.020653184555448862,0.12718360714582508,-1.3365915058236557
1.1179479730680577,4.033406061372833,-0.01975917957782864,0.11359363027330163,-1.2439024045682447
1.1144812451800195,4.014158398132597,-0.018760019178151323,0.10026929461822752,-1.141661907019993
1.111205408840988,3.997284150714524,-0.017638162366644224,0.08722234336036924,-1.0298517759672663
1.1081446134074464,3.9827328166130123,-0.01637067578381702,0.07445914665641386,-0.9087270051915194
1.105327859304684,3.9704534462983965,-0.014926592024652834,0.06197830128374238,-0.7789129999663414
1.1027908192793996,3.9603962017466507,-0.01326274158961934,0.049768860402332235,-0.6414978156310055
1.100578655686493,3.952514003588753,-0.011316853887122138,0.0378111191298479,-0.4980811218599891
1.0987506217182605,3.9467634588047176,-0.008994634648793179,0.02608382291500926,-0.35071925260860953
1.0973886249704428,3.943103106744452,-0.006138662549181626,0.014586755532400172,-0.20169884199156346
1.0966190123351367,3.941482687085461,-0.002412588954218108,0.0034179073452874718,-0.05310997937397896
