x,y,v_x,v_y,omega
2.375,32.48,0.0,3.3846153846153846,-7.755102040816326
2.3723821179868274,31.7127027220265,-0.022764191418892115,3.2875348586324233,-7.136943725262833
2.3650005567237873,30.96713937501813,-0.04142329782493432,3.195624680570783,-6.593500737567261
2.3537169269327163,30.24217285718221,-0.05669522209742161,3.1084319962632994,-6.113161868694378
2.3392434818217813,29.536763552884914,-0.06916082234549212,3.0255619541479946,-5.686450333346606
2.322171291060102,28.849957169415323,-0.07929301036476566,2.9466674673266873,-5.305574651556917
2.3029925157471953,28.18087466288609,-0.08747894887789974,2.871441285101417,-4.9640859686839
2.2821181613185244,27.528703793251907,-0.09403717658880084,2.799609755195852,-4.6566136871606405
2.259892326754915,26.89269196927502,-0.09923095005128424,2.730927844603133,-4.378659502078956
2.2366037138205073,26.272140129231836,-0.1032787276392161,2.6651751122941545,-4.126435518527824
2.2124949760276893,25.66639746387951,-0.1063624705592013,2.602152412508677,-3.896735997621281
2.1877703519928255,25.074856832281487,-0.10863426017874263,2.5416791666045495,-3.6868350036227056
2.1626019274333212,24.496950753562835,-0.11022160555607856,2.4835910831228554,-3.4944041736349885
2.1371347945111925,23.932147881925154,-0.11123172420156344,2.4277382354656702,-3.3174462440877313
2.1114913198040925,23.37994989061643,-0.1117550123819129,2.3739834280884495,-3.1542410047718565
2.0857746881343013,22.839888704632095,-0.11186787170323015,2.3222007978623265,-3.003301120013911
2.060071855417913,22.31152403284925,-0.11163502148275165,2.272274608945037,-2.8633358325568494
2.03445601715405,21.794441158869784,-0.11111139820301992,2.2240982082676886,-2.733221001117165
2.0089886783566677,21.28824895664792,-0.1103437217742148,2.1775731154006817,-2.6119742544589646
1.9837213943050258,20.792578102424798,-0.10937179171832272,2.1326082256699523,-2.4987342997123676
1.9586972384543246,20.307079458896887,-0.10822956350516588,2.0891191093553503,-2.392743619803981
1.9339520434515172,19.831422611136993,-0.10694604521490025,2.0470273929045897,-2.2933339483414783
1.9095154528689058,19.36529453673995,-0.10554604680780619,2.006260210547981,-2.1999140305029186
1.885411814560036,18.90839839511166,-0.10405080805193193,1.9667497166545413,-2.1119592731721992
1.8616609411190879,18.46045242286098,-0.10247852621718256,1.928432650742683,-2.029002962551983
1.8382787585229208,18.021188923967223,-0.10084480070600979,1.8912499483334624,-1.9506287871738526
1.8152778604483184,17.5903533448432,-0.09916300863836,1.8551463918754236,-1.876464451961985
1.7926679828243193,17.167703425642518,-0.09744462287467469,1.8200702968261628,-1.806176207357976
1.7704564107733785,16.75300842020881,-0.09569948191611516,1.7859732286843335,-1.7394641484589357
1.748648328114528,16.346048377964184,-0.09393601946519294,1.7528097473559114,-1.6760581641921337
1.7272471179663706,15.946613481808988,-0.09216146008400039,1.720537175732733,-1.6157144369421237
1.7062546216334162,15.55450343677532,-0.09038198628951621,1.6891153897774263,-1.5582124096961996
1.685671361834481,15.16952690475841,-0.08860288152731302,1.6585066277609322,-1.503352151417405
1.6654967353951367,14.791500981157121,-0.08682865272785494,1.628675316598114,-1.450952062573053
1.6457291797440143,14.420250709697854,-0.08506313554277345,1.5995879134824724,-1.400846872002668
1.626366316897975,14.055608632104764,-0.08330958485757034,1.5712127612400348,-1.3528858839705749
1.607405078071666,13.697414369620898,-0.08157075276250782,1.5435199560109685,-1.3069314406095687
1.5888418115847647,13.34551423368616,-0.07984895581924188,1.51648122603023,-1.2628575702598026
1.5706723763505048,12.99976086334443,-0.0781461331743219,1.490069820419594,-1.2205487966319206
1.5529233633500137,12.660017913606715,-0.0761931103082094,1.4642166990388064,-1.172091598534184
1.5356183021165544,12.326154342049591,-0.07428568302621957,1.4389447927622776,-1.1261090183954328
1.5187467111199977,11.99803911921348,-0.07242380390035981,1.4142310579865074,-1.0824426361619086
1.5022981409659402,11.675546379358469,-0.07060724091753172,1.3900536364048959,-1.0409461017798785
1.4862622133593155,11.358555156649484,-0.06883560783572695,1.3663917784558453,-1.0014840706395585
1.4706286535717337,11.046949138268527,-0.06710839031715886,1.3432257726829055,-0.9639312453569229
1.4553873173169944,10.740616433155452,-0.06542496841970366,1.3205368804742545,-0.9281715120557805
1.4405282128149972,10.439449355194984,-0.06378463594548883,1.2983072757037324,-0.8940971607627033
1.42604151871762,10.143344219771972,-0.06218661707518119,1.2765199888441874,-0.8616081807840085
1.411917598478467,9.852201152710702,-0.06063008065658364,1.2551588551668607,-0.8306116230249811
1.398147011669491,9.565923910698466,-0.05911415246494944,1.2342084666786615,-0.8010210221604575
1.3847205226795292,9.284419712369868,-0.05763792570862929,1.2136541274830686,-0.772755872392771
1.3716291071711788,9.007599079297052,-0.05620047001615647,1.1934818122805568,-0.7457411512548628
1.3588639566218197,8.735375686193382,-0.054800839108704855,1.1736781277513608,-0.7199068865475023
1.3464164812308825,8.467666219694422,-0.05343807733422774,1.1542302765874222,-0.6951877620523689
1.3342783114376255,8.20439024513125,-0.05211122521583249,1.1351260239618817,-0.6715227581477232
1.3224412982609575,7.945470080757602,-0.05081932414649855,1.1163536662437534,-0.6488548238795357
1.3108975126444782,7.690830678934557,-0.049561420344625025,1.097902001782724,-0.6271305774159688
1.2996392439653317,7.4403995138150165,-0.04833656816969123,1.079760303604575,-0.6063000321436495
1.288658997844136,7.19410647510524,-0.04714383288418394,1.0619182938717306,-0.5863163459559309
1.2779494933747466,6.951883767512747,-0.04598229293659423,1.0443661199760457,-0.5671355915412403
1.2675036598765348,6.713665815519132,-0.0448510418304644,1.0270943321423516,-0.5487165457079027
1.2573146332578962,6.479389173143133,-0.04374918963595802,1.0100938624315647,-0.5310204959841871
1.2473757520675601,6.248992438383734,-0.04267586419305075,0.9933560050414783,-0.5140110629119323
1.2376899461699398,6.0225232099246355,-0.041548534916692345,0.9759416337332819,-0.5165137686725028
1.2282582814120602,5.80004411815489,-0.04046594123878186,0.9586591642644939,-0.5215770749551458
1.2190705045847048,5.581525289044912,-0.039427770303439254,0.9415045671266122,-0.5290612072283827
1.2101164479694895,5.366937755614547,-0.038433591567999005,0.9244739844417885,-0.538831193134631
1.2013860550899087,5.156253419432481,-0.037482868254443226,0.9075637214892258,-0.5507565180959848
1.1928694039394518,4.9494450139908786,-0.03657496783648522,0.8907702388725478,-0.5647107965107374
1.1845567278999893,4.746486069812125,-0.035709171637101175,0.8740901452905159,-0.5805714570351047
1.176438434547138,4.547350881152802,-0.03488468360508429,0.8575201908775156,-0.5982194405251966
1.168505122524207,4.352014474177224,-0.034100638333446204,0.8410572610840422,-0.6175389092840287
1.1607475966524865,4.16045257647939,-0.033356108377166974,0.824698371071033,-0.6384169663178765
1.1531568814329842,3.9726415878377566,-0.03265011092285286,0.8084406605953586,-0.6607433833560352
1.145724233083156,3.78855855209207,-0.03198161385826088,0.7922813893671278,-0.6844103364284355
1.1384411502416405,3.6081811300356357,-0.03134954128535217,0.7762179328627313,-0.7093121478268647
1.1312993834644267,3.431487573219634,-0.030752778516507744,0.7602477785807648,-0.7353450332979155
1.1242909436272073,3.258456698568761,-0.03019017658974727,0.7443685227311914,-0.7624068533293159
1.1174081093408381,3.0890678637092677,-0.0296605563352017,0.7285778673513508,-0.7903968673959575
1.1106434334797974,2.9233009429116024,-0.029162712021674076,0.7128736178457414,-0.8192154900276215
1.1039897489172872,2.7611363035500993,-0.028695414608849317,0.6972536809499459,-0.8487640475468929
1.0974401735551007,2.6025547829817484,-0.028257414627554437,0.681716063122671,-0.8789445343027296
1.0909881147315814,2.4475376657446652,-0.02784744470739585,0.6662588693737007,-0.9096593671922241
1.0846272730869015,2.2960666609746276,-0.027464221768080836,0.650880302539658,-0.9408111372197427
1.0783516459614826,2.1481238799348183,-0.027106448887735713,0.6355786630239131,-0.9723023567882452
1.0721555304006618,2.0036918135495583,-0.02677281685853223,0.620352349021833,-1.0040352013514875
1.0660335258366878,1.8627533098273865,-0.026462005436893685,0.6051998572579192,-1.0359112439771905
1.0599805365178145,1.7252915510519813,-0.026172684292438343,0.5901197842673296,-1.0678311812792598
1.053991773753676,1.5912900306112334,-0.025903513656592582,0.5751108282609237,-1.0996945490708339
1.0480627580462984,1.4607325293248756,-0.025653144668429693,0.5601717916204473,-1.1313994259683686
1.0421893211770814,1.3336030911194499,-0.02542021941171842,0.5453015840788992,-1.1628421230392019
1.0363676083218987,1.2098859978855465,-0.025203370633349608,0.5304992266506903,-1.193916857430226
1.030594080269206,1.0895657433362054,-0.025001221129196366,0.5157638563870665,-1.2245154077428015
1.0248655158197642,0.9726270056665598,-0.024812382778992934,0.501094732044649,-1.2545267487285525
1.019179014451384,0.8590546187929817,-0.024635455206922584,0.4864912407690722,-1.2838366626724984
1.0135319993380787,0.7488335419246788,-0.024469024039209256,0.471952905911822,-1.3123273246052818
1.007922220820307,0.6419488271913885,-0.024311658724023643,0.45747939611679334,-1.339876858247611
1.002347760431725,0.5383855850170391,-0.024161909872341583,0.44307053583407113,-1.3663588593420608
0.9968070355982508,0.4381289468902523,-0.02401830607091282,0.42872631744232154,-1.391641882777683
0.9912988051374376,0.34116402513773636,-0.023879350110071654,0.41444691518824345,-1.415588889673441
0.985822175700428,0.24747586925515463,-0.023743514559578526,0.4002327011820277,-1.4380566503755952
0.9803766093153727,0.15704941829120855,-0.023609236614814396,0.3860842637218606,-1.4588950991692466
0.9749619322105019,0.06986944871350431,-0.023474912123192707,0.37200242825816143,-1.4779466364457652
0.9695783451174147,-0.014079482891332873,-0.023338888686261692,0.3579882813491188,-1.4950453741651235
0.964226435281134,-0.09481310301674739,-0.02319945771617812,0.3440431980023373,-1.5100163207915804
0.9589071904336528,-0.17234749116376946,-0.023054845305398954,0.33016887284132496,-1.5226745025879536
0.9536220150228982,-0.24669915743189108,-0.022903201744641496,0.3163673555771487,-1.5328240194092027
0.9483727490303326,-0.3178851288227378,-0.02274258949505964,0.30264109129979855,-1.5402570352023535
0.943161689759223,-0.38592304542629563,-0.02257096938415529,0.2889929661224238,-1.5447527066759814
0.9379916170340135,-0.4508312677810551,-0.022386184748101334,0.27542635870156257,-1.5460760585969522
0.9328658223221562,-0.5126289968129285,-0.02218594318109136,0.2619451980973179,-1.543976821699002
0.9277881423775707,-0.571336407848321,-0.021967795467477885,0.24855402829742793,-1.5381882603979795
0.9227629981162457,-0.626974800240383,-0.02172911115273988,0.23525807945964716,-1.5284260340713745
0.9177954395796204,-0.6795667641054095,-0.02146705003530608,0.22206334545361286,-1.5143871599954148
0.9128911980363916,-0.7291363654794125,-0.021178528601465078,0.20897666649423702,-1.4957491816455335
0.9080567465439264,-0.7757093507805948,-0.020860180028667304,0.1960058143856067,-1.472169698008629
0.903299370677731,-0.8193133706621438,-0.020508305764336376,0.18315957588874263,-1.443286485060505
0.898627251708231,-0.859978221951458,-0.02011881570957643,0.1704478266270442,-1.408718549838457
0.8940495653673148,-0.897736104086114,-0.01968715247230313,0.15788158323952703,-1.3680686146535863
0.8895766006807575,-0.9326218828258206,-0.0192081926281963,0.14547301449705013,-1.3209277524929903
0.8852199054382808,-0.964673348418998,-0.018676113828123342,0.1332353819653547,-1.2668832070419584
0.8809924682067722,-0.9939314470138569,-0.01808420992412427,0.12118286668561547,-1.2055308543666847
0.8769089521369,-1.0204404519732435,-0.01742462546606901,0.10933021991775763,-1.1364943075026492
0.8729860044092677,-1.0442480250626858,-0.016687963469865445,0.09769215477304569,-1.0594532933891307
0.8692426789709966,-1.0654050963296058,-0.0158626925151006,0.08628237798278421,-0.9741844862150297
0.8657010322605074,-1.0839654687479836,-0.014934235402197068,0.07511216478570092,-0.8806180310720944
0.8623869865857734,-1.0999850389136299,-0.013883553073750566,0.0641884453503829,-0.7789115662739908
0.8593316113693796,-1.1135205415950082,-0.01268492706880453,0.053511577965920404,-0.669538813163643
0.8565730640974034,-1.1246278216046335,-0.011302440513597264,0.04307346559604636,-0.5533790549983365
0.854159604495556,-1.1333598957117346,-0.009684164719858522,0.0328576135961392,-0.4317751120288772
0.8521545104800232,-1.139765631995921,-0.0077514354152079116,0.02284444104894071,-0.3065044350163991
0.8506451124342949,-1.1438911135147123,-0.00537376498242991,0.013029311288378068,-0.1795960856882256
0.8497650322217045,-1.145790068873886,-0.0022791064313988484,0.003483344008781881,-0.05295268216670934
