x,y,v_x,v_y,omega
2.375,32.48,0.0,2.769230769230769,-2.8571428571428577
2.3744704690854466,31.95938677416477,-0.005574009626880531,2.710908450087393,-2.6981288653783
2.3729514392265703,31.44966297959442,-0.010415778361289351,2.654605176968919,-2.5521531065517804
2.3705733878313704,30.950455720661022,-0.014616341588183517,2.6002080749616017,-2.4178146410280443
2.367450659885376,30.461412737272518,-0.01825447889596662,2.5476128028121234,-2.293891317059024
2.3636836242249992,29.98220086309107,-0.021398528055369435,2.496722714887323,-2.179313774186235
2.359360513127534,29.512504633086536,-0.024107904549528124,2.4474481272656616,-2.073143662710688
2.354558996205874,29.052025022157874,-0.026434378836361926,2.3997056719834244,-1.97455532649307
2.3493475306370937,28.600478299312456,-0.02842315346659232,2.3534177263893805,-1.8828203430267618
2.3437865225063024,28.157594984152574,-0.03011377422594512,2.3085119068725404,-1.7972944304004181
2.3379293281563336,27.723118894283513,-0.03154090314214942,2.264920618064973,-1.7174063225121816
2.331823119624844,27.296806273808393,-0.03273497613669006,2.222580650094157,-1.6426482870537198
2.3255096343086246,26.878424994372843,-0.03372276403404104,2.181432817648476,-1.5725680194085474
2.319025825751456,26.467753821315497,-0.034527852357205235,2.1414216355867524,-1.5067616928132337
2.3124044297733493,26.064581738406332,-0.03517105267549818,2.1024950266149998,-1.4448679833068077
2.3056744579394444,25.668707325443258,-0.035670756102446514,2.064604057206804,-1.3865629189996143
2.2988616285215877,25.279938183652476,-0.036043237769730244,2.0277026984856685,-1.3315554284756506
2.2919887435667445,24.898090404418543,-0.036302919649672576,1.9917476092399102,-1.2795834838369187
2.2850760193992854,24.52298807737183,-0.03646259790252853,1.9566979386202183,-1.2304107508986863
2.2781413768045273,24.15446283429585,-0.03653363993702632,1.9225151463901484,-1.183823673058628
2.271200696232841,23.792353425696014,-0.0365261555544104,1.8891628388712536,-1.1396289269535373
2.264268042597856,23.436505327202447,-0.03644914586648819,1.8566066189557429,-1.0976511976342487
2.2573558635949134,23.086770373269708,-0.0363106331118525,1.8248139487573365,-1.0577312289931016
2.250475164917262,22.743006415891877,-0.036117774021323115,1.7937540236408838,-1.0197241118589642
2.243635665281438,22.405077006276798,-0.03587695898734418,1.763397656517831,-0.9834977777670221
2.2368459337765096,22.072851097622568,-0.03559389895927269,1.7337171714214386,-0.9489316711043961
2.230113511713277,21.74620276731638,-0.0352737017063373,1.7046863054857897,-0.9159155762829129
2.223445020860078,21.42501095703311,-0.034920938853649816,1.6762801185486138,-0.8843485799233204
2.2168462597037926,21.10915922935122,-0.034539704896722735,1.648474909681821,-0.8541381508543414
2.2103222891617076,20.798535539628865,-0.034133669230484956,1.6212481400271843,-0.8251993231201458
2.2038775089867517,20.493032021995255,-0.033706122084842575,1.594578361379227,-0.7974539692210718
2.1975157259507427,20.192544788412867,-0.033260015136306074,1.5684451500143304,-0.770830152542542
2.191240214754027,19.896973739856545,-0.032797997460701056,1.5428290453153874,-0.7452615494039795
2.1850537724920067,19.606222388736924,-0.03232244740267108,1.5177114927858784,-0.7206869324229029
2.1789587674069377,19.320197691769025,-0.03183550086121315,1.4930747910867734,-0.6970497079723607
2.172961676233719,19.038810795832443,-0.03129177464634862,1.4688925345614354,-0.6727678158893063
2.167067927662314,18.761975935693457,-0.03074768400002197,1.445158624796305,-0.649555357651312
2.161277484709404,18.489609393910115,-0.030204347083243478,1.4218576045020472,-0.627352899464847
2.15559011097704,18.221630325530842,-0.029662744836371706,1.3989746942271295,-0.6061049339111167
2.150005395332376,17.957960632861962,-0.02912373563377894,1.3764957549189607,-0.5857595793009772
2.1445227739533315,17.69852484711508,-0.028588068356162333,1.3544072529429834,-0.5662683051189628
2.1391415500238407,17.443250016485145,-0.028056394059529564,1.3326962273721383,-0.5475856810311925
2.133860911330334,17.192065600244124,-0.027529276398434877,1.3113502593754207,-0.5296691472011335
2.1286799459829626,16.944903368466306,-0.027007200942317316,1.2903574435489493,-0.5124788038951144
2.123597656460237,16.70169730702976,-0.02649058350742931,1.269706361046263,-0.49597721857004456
2.118612972153841,16.462383527564594,-0.025979777612525345,1.2493860543765838,-0.480129248822389
2.1137247605710274,16.226900182042506,-0.025475081153936204,1.2293860037506703,-0.4649018797430442
2.1089318373348616,15.995187381724133,-0.02497674238465108,1.2096961048637735,-0.45026407436990007
2.1042329751074447,15.767187120200727,-0.02448496527236757,1.190306648014165,-0.4361866360607866
2.0996269115477872,15.542843200285315,-0.023999914302974643,1.1712082984638656,-0.4226420817261292
2.095112356404101,15.322101164525463,-0.023521718788457328,1.1523920779556212,-0.40960452496465766
2.0906879978296935,15.10490822912552,-0.023050476731624324,1.133849347306926,-0.3970495682384049
2.0863525080022356,14.891213221080598,-0.022586258294249643,1.1155717900080604,-0.3849542033062831
2.0821045481178233,14.680966518337943,-0.02212910891008946,1.0975513967567299,-0.37329671920986274
2.077942772823793,14.474119992813684,-0.021679052079701423,1.0797804508670361,-0.36205661717159465
2.073865834147623,14.27062695610427,-0.021236091879982693,1.0622515144952083,-0.35121453182547474
2.0698723849733347,14.070442107742487,-0.02080021521779105,1.0449574156288264,-0.3407521582538178
2.065961082111527,13.87352148585768,-0.020371393853865164,1.0278912357902088,-0.3306521843520577
2.0621305890044654,13.679822420108824,-0.019949586220467157,1.0110462984082564,-0.3208982280869088
2.0583795781034206,13.489303486767486,-0.01953473905369036,0.9944161578163592,-0.3114747792523453
2.054709846230976,13.302124860054537,-0.019094017498360837,0.9758851760041782,-0.3441613727033869
2.051120307782063,13.118456921039513,-0.01869059775335408,0.9574615504697481,-0.37825450617967277
2.0476039647948427,12.938279536348652,-0.018323538954225754,0.9391424989077332,-0.41364986849171825
2.044154002269118,12.761573091057151,-0.017991856053405295,0.9209253462659532,-0.4502450136869963
2.0407637961060074,12.588318468624873,-0.017694524610913948,0.9028075214422359,-0.48793913612016115
2.037426920179663,12.418497031425144,-0.017430485140081442,0.8847865543443763,-0.5266328481867089
2.0341371526228675,12.252090601798084,-0.01719864703671378,0.8668600733088772,-0.5662279597790738
2.030888481403251,12.089081443560449,-0.016997892117141554,0.8490258028767571,-0.6066272585114042
2.027675109262294,11.929452243904048,-0.016827077787667125,0.8312815619274452,-0.647734289738976
2.024491458085281,11.77318609561435,-0.01668503986510416,0.8136252621746586,-0.6894531353699902
2.021332172766889,11.62026647953979,-0.016570595065339044,0.7960549070312253,-0.731688190430855
2.0181921246341408,11.47067724724078,-0.016482543174113785,0.7785685908531157,-0.7743439363003944
2.015066414486007,11.32440260374496,-0.01641966891150741,0.7611644985765381,-0.8173247094730574
2.011950375307023,11.18142709033243,-0.016380743498848726,0.7438409057658885,-0.8605344646453127
2.008839574710903,11.041735567270674,-0.01636452593399787,0.7265961790946983,-0.903876530842106
2.0057298171692577,10.905313196414454,-0.01636976397805474,0.7094287772865698,-0.947253359210467
2.002617146080255,10.77214542358012,-0.01639519485355465,0.6923372525485119,-0.9905662610039515
1.9994978457323167,10.642217960597169,-0.01643954565105727,0.6753202525352067,-1.0337151341632864
1.9963684432188864,10.515516766931807,-0.01650153343768256,0.6583765228896542,-1.076598176763986
1.9932257103618394,10.392028030768007,-0.016579865057550658,0.6415049104135012,-1.1191115854493183
1.9900666657034038,10.271738149420436,-0.016673236610190795,0.6247043669293296,-1.1611492367952918
1.9868885766295055,10.154633708940946,-0.016780332588739306,0.6079739539074286,-1.2026023493617364
1.9836889616913422,10.040701462765313,-0.01689982465508497,0.5913128479413314,-1.2433591239685795
1.9804655931968322,9.929928309229744,-0.017030370023968216,0.5747203471698952,-1.2833043594977798
1.977216500149435,9.822301267766477,-0.017170609422317188,0.5581958787592294,-1.3223190412581836
1.973939971618862,9.717807453564664,-0.017319164583714585,0.541739007575648,-1.3602798986625664
1.97063456063649,9.616434050455844,-0.017474635230728005,0.5253494462013921,-1.3970589286541755
1.9672990887180417,9.5181682817522,-0.017635595489780203,0.5090270664685427,-1.4325228809867379
1.963932651127469,9.422997378729882,-0.01780058967414251,0.49277191271374005,-1.4665327011122113
1.9605346230091933,9.330908546408264,-0.017968127360339037,0.4765842169875126,-1.4989429260734577
1.9571046665311633,9.241888926228125,-0.01813667767155541,0.46046441648763115,-1.5296010284490111
1.953642739198875,9.155925555176793,-0.018304662668319843,0.4444131735263673,-1.5583467030769882
1.9501491035208942,9.07300532084501,-0.01847044973147954,0.4284313983871421,-1.585011091029727
1.946624338229931,8.993114911827927,-0.018632342804974063,0.412520275476891,-1.609415935172263
1.943069351290622,8.916240762800182,-0.01878857234564824,0.39668129323622187,-1.6313726616939555
1.9394853949564304,8.842368993501474,-0.018937283803738336,0.3809162783291263,-1.6506813823681439
1.9358740831742378,8.771485340764134,-0.019076524429865432,0.3652274346955057,-1.6671298131379793
1.9322374116771381,8.703575082597684,-0.019204228171184515,0.3496173881092138,-1.6804921061940883
1.9285777811548692,8.638622953218487,-0.01931819837901488,0.33408923693496106,-1.69052759536204
1.9248980239488462,8.576613047777897,-0.01941608800017517,0.3186466098081082,-1.6969794588819773
1.9212014347871027,8.517528715405497,-0.019495376860283957,0.30329373095398854,-1.69957331031063
1.9174918061568875,8.461352439054899,-0.01955334556303349,0.2880354937891427,-1.6980157384370207
1.9137734690140122,8.408065700535193,-0.019587045414600875,0.2728775432604083,-1.6919928324337437
1.9100513396557046,8.357648829059634,-0.01959326362021587,0.2578263670086148,-1.681168751395788
1.9063309737492942,8.310080831689465,-0.019568482763052498,0.2428893947826573,-1.665184431513717
1.9026186287310254,8.265339204266173,-0.019508833218723324,0.22807510440989648,-1.643656574610603
1.8989213360976542,8.223399721921552,-0.019410036606236244,0.2133931307966409,-1.6161771362636945
1.8952469855573804,8.184236209202584,-0.019267337501910314,0.19885437150826774,-1.582313641263606
1.8916044236674718,8.147820291508342,-0.019075419233967206,0.18447107790482387,-1.5416108144666691
1.8880035705991636,8.114121132297196,-0.01882829727454229,0.17025691379144842,-1.4935942480082591
1.88445556026277,8.083105164950602,-0.018519179950651946,0.15622695301478767,-1.4377771602191227
1.8809729115772176,8.054735835064495,-0.01814027989726851,0.1423975721021234,-1.3736717719213887
1.877569742813174,8.028973379308201,-0.017682549197929075,0.12878617270094686,-1.3008074640989147
1.8742620477324268,8.005774681992083,-0.01713529375730269,0.11541064115294264,-1.2187586914972643
1.8710680634213361,7.98509327092502,-0.01648559372786319,0.10228842271089453,-1.127186521176801
1.8680087780786545,7.9668795391937515,-0.015717409879312937,0.08943506919720695,-1.0258983151796803
1.865108657053284,7.951081303647349,-0.014810179861428354,0.07686214708070709,-0.9149296189208254
1.862396714423042,7.93764481764163,-0.013736584667433861,0.0645745477163439,-0.7946488707125535
1.8599081385961285,7.9265163065167386,-0.012458950352709637,0.052567674650933885,-0.665875764767622
1.857686825424131,7.917643913579472,-0.010923293563054094,0.04082593521502344,-0.529983865682877
1.8557894864462234,7.910979500201719,-0.009048695678077064,0.029325784550801016,-0.3889270450492681
1.8542929290198873,7.906478768235818,-0.006704540388618738,0.01805034140606429,-0.24510074185237468
1.8533101115283774,7.904095429286269,-0.0036409068904321596,0.007037437010261166,-0.10095473899939827
