x,y,v_x,v_y,omega
2.375,32.48,0.0,2.051282051282051,-3.591836734693878
2.374545585853708,32.09374887321336,-0.0047833068030712425,2.0145192833141548,-3.435497570334333
2.3732307826134864,31.714391457623304,-0.009056727304527957,1.978716670265346,-3.2887517266823862
2.3711477620604042,31.341749483216315,-0.012869804833176098,1.943830428755592,-3.1508065178814944
2.3683797786604583,30.975652734503157,-0.016266862534677885,1.9098195576987067,-3.0209484998205247
2.365002103278625,30.615938544714282,-0.01928761516883079,1.8766455979736412,-2.898534322736388
2.361082848241781,30.262451333090596,-0.02196770100847533,1.844272419117803,-2.7829827786616765
2.35668369782689,29.915042180492687,-0.02433914546406345,1.812666029281236,-2.6737678691647875
2.3518605562211583,29.5735684392079,-0.02643076617521211,1.7817944052954917,-2.570412747135652
2.346664123296678,29.23789337338462,-0.02826852776668956,1.7516273402127023,-2.4724844096113543
2.3411404071054327,28.907885826986664,-0.02987585319378533,1.7221363060815842,-2.3795890378063893
2.3353311807849453,28.58341991655266,-0.03127389754818796,1.6932943300657988,-2.291367896393447
2.3292743905325755,28.264374746378827,-0.03248178931886457,1.6650758822903322,-2.207493717290411
2.323004520427118,27.950634144027973,-0.033516843370162516,1.6374567740344803,-2.1276675042393665
2.3165529191248515,27.64208641431167,-0.034394749285271656,1.6104140650844645,-2.051615703706986
2.3099480928131495,27.338624110102586,-0.03512973820633007,1.5839259792217177,-1.97908769540871
2.3032159682512843,27.04014381851531,-0.03573473086593423,1.5579718269601113,-1.9098535623169897
2.2963801292512005,26.746545961151767,-0.03622146913494602,1.5325319347613937,-1.8437021055636005
2.2894620295391523,26.457734607244063,-0.03660063309713933,1.5075875800565461,-1.7804390743565237
2.282481184582561,26.173617298647656,-0.0368819453932952,1.4831209314846119,-1.719885585041249
2.2754572557699424,25.894107484613393,-0.037054147371112255,1.4590876372970867,-1.6600830542966774
2.2684071592893496,25.619121673856984,-0.0371573945298665,1.4354998443493112,-1.6029164084023704
2.261343381743048,25.34857669238049,-0.03719815858909858,1.412342065929571,-1.5482389354902732
2.2542772344574935,25.08239224295768,-0.03718233915357973,1.389599506942106,-1.495913637731323
2.2472189571761323,24.8204907774778,-0.03711531643969246,1.367258024425067,-1.4458124846243972
2.2401778122289415,24.562797376531197,-0.03700199879389479,1.345304090802345,-1.3978157315041726
2.233162170115485,24.309239635738816,-0.03684686555828284,1.3237247596437582,-1.351811296888866
2.2261795873388834,24.05974755836833,-0.03665400577436526,1.3025076337298147,-1.3076941929798178
2.2192368772400988,23.814253453816516,-0.03642715316020825,1.2816408352366238,-1.265366004233662
2.2123401745039106,23.57269184157103,-0.036169717747034466,1.2611129778737458,-1.2247344094650807
2.2054949939387085,23.334999360294823,-0.03588481451825107,1.2409131408231489,-1.185712743413032
2.1987062840706586,23.10111468170421,-0.035575289355959674,1.2210308443411912,-1.148219594123755
2.1919784760380163,22.870978428936503,-0.0352437425665923,1.2014560268978647,-1.112178432876608
2.1853155282225445,22.644533099126036,-0.034892550227844876,1.1821790237385945,-1.0775172737097698
2.17872096701146,22.421722989928305,-0.034523883573044825,1.1631905467638306,-1.0441683598971343
2.172197924044445,22.202494129750832,-0.034139726606061314,1.144481665630618,-1.012067874989766
2.1657491702655194,21.98679421146703,-0.03374189211947283,1.1260437899884128,-0.981155676268929
2.15937714706846,21.7745725294051,-0.033332036270624095,1.1078686527687003,-0.951375048666275
2.1530839947966065,21.565779919418887,-0.032911671854151836,1.0899482944545833,-0.9226724773932342
2.146871578832909,21.360368701860768,-0.032482180395292645,1.0722750482624792,-0.8949974376885147
2.140741513493675,21.15829262728935,-0.032044823175593255,1.0548415261735016,-0.8683022002421489
2.1346951839193165,20.959506824755948,-0.03160075129133828,1.0376406057570273,-0.8425416509886675
2.128733766137321,20.763967752524355,-0.031151014834930723,1.020665417733442,-0.8176731240824592
2.1228582454563583,20.5716331510881,-0.030696571280464133,1.0039093342271384,-0.7936562469767068
2.117069433335779,20.382461998358387,-0.030238293146688192,0.9873659576645759,-0.770452796624799
2.1113701116691073,20.19662972061957,-0.029754566502489192,0.9687632816914022,-0.7925593017484927
2.1057600136312145,20.014321275783814,-0.02929909705427335,0.9502729797376077,-0.8162858005011477
2.10023381129666,19.835515593651692,-0.028871453835775884,0.9318920953373432,-0.8415177745152589
2.094786265970168,19.660192154336922,-0.02847112854834686,0.9136177921865533,-0.8681428744592297
2.0894122422462966,19.488330965792567,-0.028097542229251305,0.8954473503856037,-0.8960506744465697
2.084106720855225,19.319912542012045,-0.027750051360974113,0.8773781630935829,-0.9251324299555116
2.078864810397508,19.154917881827235,-0.02742795345709831,0.8594077335886211,-0.955280838252322
2.0736817580641813,18.993328448226826,-0.027130492156870717,0.8415336727314746,-0.9863898003042518
2.0685529594328385,18.83512614811824,-0.0268568618572654,0.8237536968326127,-1.018354183153178
2.0634739674251215,18.68029331245615,-0.026606211908175557,0.8060656259261983,-1.0510695816982587
2.058440500506483,18.528812676659683,-0.026377650393281424,0.7884673824576794,-1.0844320788049697
2.053448450205089,18.38066736123865,-0.026170247516128363,0.7709569903952709,-1.1183380026182779
2.048493888023299,18.23584085254705,-0.02598303860797801,0.7535325747794586,-1.152683679908911
2.0435730718122924,18.094316983578764,-0.025815026771038457,0.7361923617288493,-1.1873651842231048
2.0386824516781115,17.956079914716618,-0.025665185167707157,0.7189346789252966,-1.2222780775371824
2.0338186754856524,17.821114114341114,-0.02553245896344283,0.7017579566063256,-1.2573171440381148
2.0289785940259852,17.68940433919915,-0.025415766927786663,0.6846607290985437,-1.2923761145590245
2.0241592659118357,17.560935614426242,-0.025314002694844743,0.6676416369320654,-1.3273473800936335
2.019357962266113,17.435693213107307,-0.025226035681184568,0.6506994295830911,-1.3621216926950714
2.014572171269123,17.31366263525143,-0.025150711655548053,0.6338329688998154,-1.3965878519314965
2.0097996026315013,17.194829586044733,-0.025086852950996573,0.6170412332759126,-1.43063237492297
2.005038192062084,17.07917995323214,-0.025033258306030214,0.6003233226461491,-1.4641391478205137
2.000286105802914,16.96669978346367,-0.024988702316808213,0.5836784643903579,-1.4969890564092052
1.9955417453074284,16.857375257423282,-0.024951934477777944,0.5671060202453095,-1.5290595933229836
1.9908037521426807,16.75119266353776,-0.024921677782725454,0.5506054943391265,-1.5602244391509401
1.9860710132023427,16.648138370039938,-0.02489662685241086,0.5341765424800766,-1.5903530144958562
1.9813426663242604,16.548198795133477,-0.02487544554845462,0.5178189828510852,-1.6193099998201719
1.976618106414698,16.4513603749757,-0.024856764025887757,0.5015328082833972,-1.646954819689646
1.9718969921912175,16.357609529159543,-0.024839175168643573,0.4853182003077291,-1.673141087811845
1.967179253667602,16.266932623335435,-0.024821230343097443,0.4691755452091947,-1.6977160090819616
1.9624651005175429,16.17931592856794,-0.024801434394367147,0.45310545234336497,-1.7205197347169618
1.9577550314692458,16.094745576969846,-0.024778239798234132,0.43710877500499806,-1.7413846665165333
1.95304984490096,16.013207513097466,-0.024750039867932304,0.42118663417792546,-1.7601347063876522
1.9483506508280755,15.934687440524876,-0.024715160899273184,0.4053404455335578,-1.7765844475833181
1.9436588844963314,15.859170762941108,-0.024671853119084826,0.3895719500850321,-1.7905383047419452
1.9389763218234217,15.786642519033574,-0.024618280279965404,0.37388324894164143,-1.8017895809247408
1.934305096963636,15.717087310333348,-0.024552507717778786,0.35827684263969994,-1.8101194716522793
1.9296477223081736,15.650489221105829,-0.0244724886555099,0.3427556755447141,-1.8152960087499657
1.9250071112788194,15.58683172927664,-0.024376048495587315,0.32732318581516423,-1.8170729510704215
1.9203866043268023,15.526097607293657,-0.024260866788801856,0.31198336137412963,-1.8151886355057616
1.9157899986147782,15.468268811751585,-0.024124456495664033,0.2967408022266097,-1.8093648110456777
1.9112215819423417,15.4133263605613,-0.023964140056297403,0.2816007892500895,-1.7993054922834828
1.9066861715808818,15.361250196456922,-0.023777021643280986,0.2665693592170579,-1.7846958885911446
1.902189158822081,15.312019035737663,-0.023559954765148133,0.2516533851962054,-1.7652014938499365
1.8977365602318403,15.265610201396662,-0.023309504079490465,0.2368606604985255,-1.7404674629493242
1.8933350768628996,15.221999440283149,-0.023021899804095712,0.2221999828016273,-1.7101184606594806
1.8889921630548743,15.18116072480721,-0.02269298238564492,0.20768123273456188,-1.6737592535245662
1.8847161070037948,15.143066041119628,-0.02231813394150889,0.19331543766105605,-1.6309764365516024
1.8805161261175427,15.107685167957577,-0.021892191176933196,0.17911480614999353,-1.581341857591334
1.8764024814550617,15.07498545382693,-0.021409331586025065,0.16509271101472,-1.524418540889746
1.8723866175440786,15.044931605410856,-0.020862920108532787,0.15126358810185517,-1.459770236755618
1.8684813370155489,15.017485507695898,-0.020245295981252943,0.13764270363452938,-1.3869761520615347
1.8647010244714561,14.992606106967639,-0.01954746764077709,0.12424572508398958,-1.3056529417439748
1.861061941901959,14.970249401962882,-0.018758664669720666,0.1110880118081918,-1.2154866023445927
1.8575826304754983,14.950368605470882,-0.01786566613512785,0.09818353021286415,-1.1162773055713848
1.854284473229034,14.932914555266226,-0.016851778564494328,0.08554331404665903,-1.0079999560640478
1.8511925040955686,14.917836460188834,-0.015695264945670823,0.07317347624167567,-0.8908813422940967
1.8483365976156767,14.905083043689093,-0.014366908526873477,0.06107301322928601,-0.7654894061768772
1.845753255094264,14.894604053210404,-0.01282617064589254,0.04923214970426641,-0.632819076950359
1.84348835898016,14.88635187167747,-0.011014841081515622,0.0376329190634775,-0.49434121788163954
1.8416016509525877,14.88028248226188,-0.008845243419248632,0.026255390574319526,-0.35196114186347105
1.8401749653375143,14.876353973831595,-0.006172499897310925,0.015097329744448057,-0.207825476807041
1.83933243271675,14.874516988673214,-0.002696264531787571,0.00423935613323765,-0.06394616647548557
