x,y,v_x,v_y,omega
2.375,32.48,0.0,3.0769230769230766,-2.7346938775510203
2.3744884497404426,31.93216362778798,-0.0056838917728614016,3.0101477254326863,-2.5757467956545996
2.373023677660892,31.396128458993086,-0.010591353555477735,2.945798594510568,-2.4305015000678734
2.370736362082449,30.871470430333808,-0.014823263982778627,2.8837350572591705,-2.2974171834011288
2.3677402999869273,30.357789806010356,-0.01846631485634815,2.823827435223641,-2.1751582617048344
2.3641347635691448,29.85470930555435,-0.021595200896790873,2.765955903176424,-2.0625633000740256
2.3600064959150684,29.36187241647518,-0.02427443970405803,2.7100095310365786,-1.9586191736029714
2.355431406251833,28.878941868914488,-0.02655988988744821,2.655885441859978,-1.8624394953328585
2.3504760142002192,28.405598252963642,-0.028500021797151207,2.603488068704986,-1.7732465377030855
2.345198683618443,27.94153876212009,-0.030136984667026127,2.55272849622339,-1.6903560264953492
2.339650679495233,27.486476048687933,-0.03150750559086354,2.5035238752450097,-1.613164306268241
2.333877075573402,27.040137178865308,-0.03264364909614803,2.455796900561924,-1.5411374712506398
2.327917535685673,26.602262676883278,-0.03357346076750856,2.409475343682897,-1.4738021312055567
2.321806987946281,26.172605648927657,-0.03432151411462364,2.364491633601777,-1.4107375421580268
2.3155762077952753,25.750930978733454,-0.034909376452104825,2.3207824796671415,-1.3515688803656156
2.3092523233036166,25.337014587728277,-0.03535600678854745,2.27828853150148,-1.295961477011677
2.302859254010001,24.930642753446158,-0.035678096473850986,2.2369540716331944,-1.243615862766276
2.2964180927902977,24.531611480659993,-0.03589036152285193,2.1967267371019363,-1.1942634971032824
2.2899474387899423,24.13972592030887,-0.0360057940366499,2.1575572667994773,-1.1476630782707606
2.283463688224245,23.754799831841044,-0.03603587891554418,2.119399271731899,-1.1035973470181921
2.276981288827565,23.376655085067824,-0.03599078104756317,2.082209025748321,-1.0618703113252415
2.270512962874211,23.00512119803758,-0.035879507323038164,2.045945274587736,-1.0223048310374012
2.264069902972926,22.640034907802487,-0.03571004713568701,2.010569061357755,-0.9847405109598519
2.2576619442295054,22.281239771269686,-0.03548949445787507,1.976043566784474,-0.9490318589649155
2.251297715859216,21.928585793610047,-0.03522415410089527,1.9423339627670642,-0.915046672329827
2.244984774896555,21.581929081946498,-0.03491963437311774,1.9094072779390374,-0.8826646210813781
2.238729724281551,21.241131522264396,-0.0345809280158131,1.8772322740843028,-0.8517760017773328
2.232538317288592,20.906060477682296,-0.03421248301706109,1.84577933238351,-0.8222806390596517
2.2264155499968283,20.576588506395808,-0.03381826466920781,1.8150203485774687,-0.7940869156003397
2.2203657432732427,20.25259309776296,-0.03340181003729962,1.784928636231946,-0.7671109138323571
2.21439261554441,19.93395642513844,-0.03296627583862193,1.7554788373738233,-0.7412756552016976
2.2084993474656693,19.620565114188835,-0.03251448059182515,1.726646839844029,-0.7165104246632427
2.2026886394527505,19.31231002553274,-0.03204894177393859,1.698409700779273,-0.692750169830663
2.196962762917171,19.009086050650186,-0.031571908621391684,1.6707455756935234,-0.6699349656276488
2.191323605940076,18.710791920096355,-0.03108539112410876,1.6436336526824036,-0.6480095365140119
2.185772714027037,18.41733002313613,-0.030591185687434436,1.6170540913200913,-0.6269228294088469
2.1803113265065894,18.128606237989956,-0.030090897873093495,1.5909879658596087,-0.6066276313315639
2.174940409066177,17.84452977194801,-0.02958596257593477,1.565417212384213,-0.5870802265532273
2.1696606828591607,17.565013010670288,-0.02907766194646549,1.5403245795905025,-0.5682400887145013
2.16447265056437,17.289971376044946,-0.028567141328988004,1.515693582913289,-0.5500696039387781
2.1593766197342137,17.019323192027173,-0.028055423450527816,1.4915084617286603,-0.5325338214632926
2.1543753802162557,16.7529901252069,-0.027513904526781593,1.4677478362743477,-0.5146486171782897
2.149471075774103,16.4908964664616,-0.02697836705269372,1.4444039275623444,-0.4975169018758877
2.144662592661723,16.23296845232746,-0.026449223084860404,1.4214628961503144,-0.48109850410374827
2.139948749006251,15.9791347581817,-0.025926817531492678,1.3989114832469909,-0.46535579745329847
2.135328306215935,15.729326396492219,-0.02541143569424436,1.3767369799694904,-0.4502535135498353
2.1307999791042276,15.483476620427144,-0.02490330999139396,1.354927198531348,-0.435758570620748
2.1263624448691463,15.241520832489474,-0.02440262595395671,1.3334704452205193,-0.42183991619396943
2.1220143510514915,15.003396497866184,-0.02390952757553741,1.3123554950382448,-0.4084683826270179
2.1177543225818356,14.769043062203519,-0.023424122087306785,1.2915715678802457,-0.39561655429868764
2.1135809680140683,14.538401873540678,-0.022946484221218113,1.2711083061513262,-0.3832586454125888
2.1094928850325996,14.311416108152873,-0.02247666001732514,1.250955753713184,-0.37137038746606754
2.1054886653108182,14.0880307000721,-0.022014670224686696,1.2311043360731881,-0.35992892553106665
2.1015668987900202,13.86819227406989,-0.021560513339734834,1.2115448417291206,-0.34891272257654404
2.0977261774405505,13.651849081901037,-0.02111416832104442,1.1922684045914835,-0.33830147113630454
2.0939650985602984,13.438950941620813,-0.020675597015088462,1.1732664874110146,-0.32807601169253375
2.0902822676598056,13.229449179800813,-0.020244746323721953,1.1545308661445564,-0.31821825720484004
2.0866763009780036,13.023296576480032,-0.019821550140743802,1.1360536151974738,-0.3087111232679889
2.0831458276679666,12.820447312698569,-0.01940593108188685,1.11782709348543,-0.29953846342944024
2.079689491687903,12.620856920471251,-0.01899780202993131,1.0998439312625605,-0.2906850092408751
2.0763059534289234,12.424482235067593,-0.018597067514286,1.0820970176669704,-0.28213631465665556
2.072993891107831,12.231281349473143,-0.018203624942297412,1.0645794889380358,-0.27387870442706996
2.0697520019502313,12.041213570915026,-0.01781736569769746,1.0472847172632704,-0.2658992261656851
2.0665790031866424,11.854239379341934,-0.017438176119958706,1.030206300215525,-0.2581856057985304
2.0634736328819283,11.67032038775557,-0.017065938376866367,1.0133380507440548,-0.2507262061284941
2.0604346506162914,11.489419304296906,-0.01670053124131855,0.9966739876855466,-0.24350998827151013
2.0574636563001665,11.311716787822917,-0.016310516715627922,0.9777984175810059,-0.2842030740268859
2.0545592298402737,11.137402720203042,-0.01596088839428983,0.9590245559731501,-0.3260235489253916
2.0517142172012246,10.966459020465713,-0.0156503631507013,0.9403498855527163,-0.3688730715862607
2.048921697082583,10.798868052091976,-0.015377638167535606,0.9217719852665984,-0.4126545788845635
2.0461749841930175,10.634612605900195,-0.015141393938753613,0.9032885279754129,-0.45727207331376946
2.043467632013812,10.473675883322223,-0.014940296941305832,0.8848972784464819,-0.5026304106903045
2.0407934351095602,10.316041480010472,-0.01477300199482604,0.8665960916840794,-0.5486350872616651
2.0381464310407678,10.161693369714769,-0.014638154325090207,0.8483829116015102,-0.5951920252494903
2.0355209019305023,10.010615888366807,-0.014534391344524727,0.830255770042505,-0.6422073558205977
2.0329113757350434,9.862793718308353,-0.014460344160570992,0.8122127861625564,-0.6895871984317504
2.030312627266772,9.718211872597141,-0.014414638820223744,0.7942521661842598,-0.7372374354371156
2.027719679016264,9.576855679321554,-0.01439589729653116,0.7763722035444833,-0.7850634807801639
2.025127801819754,9.438710765851567,-0.01440273822024656,0.758571279455381,-0.8329700415131972
2.0225325154177907,9.30376304294905,-0.014433777357123657,0.7408478639059156,-0.8808608707966916
2.0199295889510833,9.171998688655297,-0.014487627828515749,0.7232005171357934,-0.9286385109259889
2.017315041440223,9.043404131867309,-0.014562900069936704,0.7056278916196145,-0.9762040248132138
2.014685142297216,8.917966035507028,-0.014658201519027211,0.6881287346057294,-1.0234567142161484
2.0120364119186225,8.79567127917894,-0.014772136020897742,0.6707018912619069,-1.0702938228515466
2.009365622412588,8.676506941201392,-0.014903302935039144,0.6533463084886111,-1.1166102223563008
2.0066697985152886,8.56046027988506,-0.015050295923845367,0.6360610394706405,-1.1622980788642003
2.003946218756303,8.447518713918264,-0.015211701398216254,0.6188452490493148,-1.2072464977469484
2.001192416937307,8.337669801702877,-0.01538609659062851,0.6016982200105436,-1.2513411438239328
1.9984061839943146,8.230901219465995,-0.015572047220397352,0.5846193603992638,-1.2944638340745231
1.9955855703206233,8.12720073795112,-0.01576810470950586,0.5676082119882067,-1.33649209958841
1.9927288886357457,8.026556197467762,-0.01597280290024608,0.5506644600491231,-1.3772987131635446
1.989834717495115,7.928955481049535,-0.01618465421787266,0.5337879445978616,-1.4167511786087208
1.9869019055463928,7.83438648543769,-0.016402145212373733,0.516978673311527,-1.4547111774319608
1.9839295766509957,7.7428370895684395,-0.016623731403150963,0.5002368363468298,-1.4910339682029123
1.980917136004231,7.6542951201980465,-0.01684783133867769,0.48356282332419787,-1.5255677334783815
1.9778642774044641,7.56874831424842,-0.017072819769843296,0.4669572427827654,-1.5581528687927222
1.9747709918413405,7.486184277396802,-0.017297019820418678,0.45042094445743935,-1.5886212078670237
1.971637577595653,7.406590438365328,-0.017518694020555118,0.4339550447811803,-1.6167951779255905
1.9684646520693898,7.32995399828841,-0.017736034049033306,0.4175609560734511,-1.642486878889452
1.9652531655943863,7.25626187444729,-0.017947149006561726,0.401240419939001,-1.665497080340418
1.9620044175024414,7.185500637560622,-0.018150052015048438,0.38499554546841974,-1.685614130657359
1.9587200747795994,7.117656441707425,-0.018342644905417475,0.36882885290044926,-1.7026127738279235
1.9554021936735146,7.052714945834012,-0.018522700717745852,0.35274332347081244,-1.716252871440991
1.9520532446768097,6.990661225661423,-0.018687843690088347,0.33674245622461196,-1.7262780307188754
1.9486761413729297,6.931479674667681,-0.01883552635302323,0.32083033259472477,-1.7324141448160715
1.9452742737068107,6.875153892677023,-0.018963003270520806,0.30501168952369084,-1.7343678599666408
1.9418515463345265,6.821666560458425,-0.019067300865969652,0.28929200179407694,-1.7318249968372912
1.9384124228197308,6.7709992986393495,-0.019145182631761504,0.273677573973436,-1.7244489727469177
1.9349619765890824,6.723132509212267,-0.01919310881988621,0.2581756418830219,-1.7118793003539488
1.9315059497480913,6.678045198006792,-0.019207189413348258,0.242794482622254,-1.6937302815689719
1.9280508211157756,6.635714776807305,-0.01918312872349305,0.2275435307053841,-1.6695900795524823
1.924603885198608,6.596116844452283,-0.019116159245035017,0.21243349546152174,-1.6390204465496243
1.9211733443533978,6.559224947469087,-0.01900096125730034,0.19747647101842555,-1.6015575252461218
1.9177684171885576,6.525010322898542,-0.018831562796480808,0.18268602420986887,-1.5567143465537834
1.9143994674976623,6.493441629425881,-0.01860121154679937,0.16807723659746102,-1.5039859450734394
1.9110781600017988,6.46448467844904,-0.018302205073907216,0.1536666631452135,-1.442858440786413
1.9078176523929977,6.438102185228317,-0.017925657246103673,0.1394721504183685,-1.3728240319968281
1.9046328384523696,6.41425357295277,-0.017461164316432142,0.12551243042104696,-1.29340463953714
1.9015406657516158,6.392894880602345,-0.01689631013638682,0.11180637347258601,-1.2041879105835327
1.8985605659213347,6.373978849256325,-0.016215910200069336,0.09837175259430767,-1.1048802449650041
1.895715059391713,6.357455288507616,-0.015400829017949747,0.08522336683580836,-0.9953818637414185
1.8930306358683107,6.343271844884281,-0.01442609901985477,0.07237045120123506,-0.8758872771537557
1.890539076752074,6.331375281086977,-0.013257891160552218,0.05981359099101734,-0.747007950242951
1.8882794969870345,6.321713270781483,-0.011848550673221606,0.047542079070029775,-0.6098980002168626
1.8863016003697144,6.314236411816694,-0.010128078408110358,0.03553413164987075,-0.46633467348278523
1.8846711902192548,6.308899471338631,-0.007987589930330458,0.023765206995287662,-0.31866871071519765
1.8834809501467453,6.305659245649302,-0.005237299764219237,0.01223730066390567,-0.16954143925571527
1.8828809610996229,6.304459478043945,-0.0014292452038081834,0.0010934505067402324,-0.02132890248172331
