x,y,v_x,v_y,omega
2.375,32.48,0.0,2.0,-4.571428571428571
2.3743031760919595,32.06391643387601,-0.006636418171815215,1.9627006297522624,-4.36019592924489
2.3722901836056014,31.65555334036799,-0.012534938841118493,1.9264716893717355,-4.162934208926721
2.3691080031387513,31.254691607392566,-0.017771541795547453,1.8912591008703985,-3.9784039591693108
2.3648885576913155,30.861123064750903,-0.022413652941936927,1.8570127338121165,-3.8054988727762598
2.3597503954229984,30.474649697172687,-0.02652122580393946,1.8236860050280215,-3.6432291779406487
2.353800161505805,30.095082935880008,-0.030147668645524837,1.7912355310927452,-3.4907073925526095
2.347133888873618,29.72224301847749,-0.03334064213720346,1.7596208251217171,-3.347136062076154
2.339838132915174,29.355958408584662,-0.03614274794321901,1.7288040310004296,-3.2117971697610277
2.3319909712565567,28.996065267943514,-0.03859212499599297,1.6987496893914702,-3.0840429625573313
2.323662886562421,28.642406974817735,-0.04072296732911075,1.6694245308540254,-2.9632879800736687
2.3149175476174118,28.29483368339636,-0.042565975004307074,1.6407972922067109,-2.8490021095398097
2.305812501725957,27.95320191965922,-0.04414874777145235,1.6128385529089004,-2.7407045187472994
2.296399789607015,27.61737420978401,-0.04549612955180688,1.5855205887597525,-2.6379583426937065
2.2867264923949477,27.287218737696783,-0.0466305105631177,1.5588172406424199,-2.5403660191962723
2.2768352190359846,26.962609028808103,-0.047572092855581775,1.5327037963926078,-2.447565184888856
2.2667645412496276,26.643423657350002,-0.048339124157339056,1.50715688416075,-2.3592250564184645
2.256549382271775,26.329545975045992,-0.04894810420316382,1.48215437587745,-2.275043232826198
2.246237965280944,26.02086899853925,-0.04925586713808268,1.4576263527581634,-2.190820187056611
2.2358730579475505,25.717289828686862,-0.04945753603709442,1.4336038363122043,-2.1106002513167317
2.225475835282567,25.418704296771168,-0.049563632200845247,1.410067896218233,-2.034144188975311
2.2150653663571087,25.125012111834717,-0.049583690898755195,1.3870005317479568,-1.9612298021625165
2.2046588112251144,24.83611667163217,-0.049526357977380496,1.3643846130382047,-1.8916505219694506
2.1942715986264543,24.55192488543591,-0.04939947629557509,1.3422038269262115,-1.8252141314554216
2.183917586484934,24.27234700778191,-0.04921016314747359,1.3204426269213791,-1.761741607413403
2.173609206986975,23.997296482327123,-0.04896487969023358,1.2990861869337331,-1.7010660684962864
2.163357597826269,23.72668979506495,-0.04866949326887067,1.2781203584203007,-1.6430318187443902
2.1531727210236724,23.460446336212932,-0.04832933342252257,1.2575316306465394,-1.5874934768086961
2.1430634705767266,23.19848827014694,-0.04794924226267914,1.2373070937914754,-1.5343151822602166
2.1330377700567555,22.94074041281027,-0.04753361983228358,1.2174344046529537,-1.4833698713355423
2.1231026611511052,22.687130116074655,-0.047086464983432524,1.1979017547338806,-1.434538615310554
2.113264384041676,22.43758715857384,-0.04661141224922762,1.1786978405119826,-1.3877100154342674
2.1035284504167597,22.192043642570027,-0.04611176513092534,1.1598118357147877,-1.3427796490063433
2.093899709829759,21.950433896448924,-0.045590526173845014,1.1412333654385733,-1.2996495617564432
2.084382410044324,21.71269438247153,-0.045050424163631635,1.122952481965184,-1.2582278021912934
2.0749802519396883,21.47876360944005,-0.04449393873766128,1.1049596421441443,-1.2184279940245342
2.065696439491467,21.248582049961858,-0.04392332267396681,1.0872456862195785,-1.1801689432025257
2.056533725291095,21.022092062019617,-0.04334062209148204,1.0698018179922546,-1.1433742763926176
2.0474944520206217,20.799237814577666,-0.04274769477016872,1.0526195862167793,-1.1079721081144251
2.0385805902581398,20.579965216974927,-0.04214622677727949,1.0356908671426777,-1.0738947339741862
2.0297937729520683,20.36422185187277,-0.04153774756625991,1.0190078481159375,-1.0410783477113996
2.0211353268693957,20.15195691154331,-0.04092364369728679,1.002563012164662,-1.0094627799892963
2.0126063012933253,19.943121137298636,-0.04030517131290607,0.9863491234988603,-0.9789912570593817
2.004212329446258,19.7378282151423,-0.03963741770678302,0.9688215637043093,-0.9800175503149228
1.9959563827050808,19.536203100454657,-0.03899064649490526,0.9514176237970896,-0.9833533846870757
1.9878340035593975,19.33822020730578,-0.038365345368744815,0.9341337395255321,-0.9888699798640787
1.979840646662692,19.143854682703388,-0.03776186317130746,0.9169664947829784,-0.9964422626728875
1.971971706829605,18.95308237615005,-0.03718042095333294,0.899912615248794,-1.0059485854648627
1.964222544799827,18.765879810483234,-0.036621122187409365,0.8829689625304452,-1.0172704544088527
1.9565885109392036,18.58222415389522,-0.036083962199479916,0.8661325287839688,-1.030292266591132
1.9490649670366567,18.402093193034624,-0.03556883687239492,0.8494004317931232,-1.0449010548607078
1.941647306344529,18.225465307094858,-0.03507555067167789,0.8327699104903848,-1.0609862393903542
1.9343309719998563,18.05231944279826,-0.03460382403949248,0.8162383209057618,-1.0784393849485756
1.9271114739548265,17.88263509018728,-0.03415330019888473,0.7998031325321702,-1.097153962895666
1.9199844045362402,17.716392259136015,-0.03372355140670005,0.7834619250988957,-1.1170251169281902
1.9129454527460754,17.55357145649715,-0.033314084690107076,0.7672123857474569,-1.1379494316005827
1.905990417408285,17.394153663799926,-0.03292434709837373,0.7510523066070517,-1.1598247026500645
1.899115219260623,17.238120315415365,-0.03255373049840734,0.7349795827697161,-1.1825497081416176
1.8923159120846358,17.085453277104364,-0.03220157593956517,0.7189922106684106,-1.2060239794331549
1.885588692961896,16.93613482486341,-0.03186717761033941,0.7030882868645014,-1.2301475709370397
1.8789299117401073,16.790147623980904,-0.031549786406696215,0.6872660072545719,-1.2548208276224755
1.8723360797888509,16.6474747082146,-0.03124861312907819,0.6715236667102293,-1.2799441491636647
1.865803878121452,16.50809945899732,-0.030962831322337278,0.6558596591686195,-1.3054177495906663
1.8593301649567435,16.372005584574058,-0.030691579770126293,0.6402724781957838,-1.3311414112431534
1.8529119827923664,16.239177098968266,-0.030433964652514345,0.624760718049861,-1.3570142317614042
1.8465465650597106,16.109598300668996,-0.030189061372777017,0.6093230752765233,-1.3829343627734332
1.8402313424296453,15.983253750923083,-0.02995591605641635,0.5939583508750237,-1.4087987388518683
1.8339639488378636,15.860128251507813,-0.02973354672245661,0.578665453079921,-1.4345027952187481
1.8277422272989956,15.740206821849263,-0.02952094412390504,0.5634434008110422,-1.4599401725707906
1.8215642355796384,15.623474675339576,-0.029317072250924222,0.5482913278526502,-1.4850024072820922
1.8154282518021887,15.509917194692662,-0.029120868486692986,0.533208487832249,-1.509578605116258
1.8093327800538668,15.399519906161864,-0.02893124340208854,0.5181942600801012,-1.5335550964468943
1.8032765560786763,15.292268452424889,-0.028747080171151712,0.5032481564625193,-1.5568150708463444
1.797258553134308,15.1881485639203,-0.028567233584738855,0.4883698292954529,-1.579238188760897
1.7912779881012617,15.087146028395978,-0.02839052863474857,0.47355908046000145,-1.6007001678516397
1.7853343279378586,14.98924665840255,-0.028215758635756566,0.45881587185835165,-1.621072341451399
1.7794272965824107,14.894436256433849,-0.02804168284469865,0.4441403373673862,-1.6402211864810494
1.773556882412827,14.802700577381149,-0.027867023532289422,0.429532796467869,-1.6580078180991153
1.7677233463844766,14.714025287928312,-0.02769046245200073,0.41499376974962926,-1.6742874483502024
1.7619272309794538,14.628395922470283,-0.02751063664345465,0.4005239965172983,-1.6889088061631827
1.756169370114732,14.545797835087594,-0.02732613349675349,0.3861244547464143,-1.701713516275603
1.750450900173389,14.466216147054375,-0.02713548499222646,0.37179638366518125,-1.7125354350916961
1.7447732723425424,14.38963568929709,-0.026937161015836954,0.35754130926132055,-1.7211999422093918
1.7391382664643742,14.3160409391561,-0.02672956163338281,0.34336107303381574,-1.7275231875055508
1.7335480066333764,14.245415950733733,-0.026511008185645606,0.3292578643220427,-1.7313112954291394
1.7280049788046465,14.177744278042812,-0.02627973304035093,0.3152342565438568,-1.7323595307731237
1.7225120507160927,14.113008890102389,-0.026033867803018747,0.3012932476506498,-1.7304514340344805
1.7170724944736315,14.051192077069064,-0.025771429744232063,0.28743830504766726,-1.725357940029921
1.711690012205732,13.992275346452313,-0.025490306140526074,0.27367341511186544,-1.716836501419236
1.7063687652660364,13.936239308455626,-0.025188236142287726,0.260003137237534,-1.7046302501928905
1.7011134075565022,13.883063549534828,-0.024862789662798607,0.2464326620081487,-1.688467246403714
1.695929123667943,13.832726493404355,-0.02451134260919341,0.23296787256778353,-1.6680598864257155
1.6908216727044418,13.785205249001972,-0.02413104751938993,0.21961540745491476,-1.643104575545627
1.6857974388951966,13.740475445416113,-0.023718798282945392,0.206382721934226,-1.6132818155302626
1.6808634904367383,13.698511054594487,-0.023271187035704646,0.19327814303364255,-1.5782569221531983
1.6760276485045813,13.659284203940693,-0.022784450413409967,0.18031091081201825,-1.5376816774399569
1.6712985691116966,13.622764982881154,-0.022254400947398074,0.16749119451691608,-1.4911973455102787
1.6666858416059909,13.588921250438716,-0.02167633720217948,0.15483006683964748,-1.438439650014102
1.6622001093007985,13.557718455158536,-0.02104492284727059,0.14233941201921113,-1.379046536201094
1.6578532203499514,13.529119484844301,-0.02035401954174929,0.13003173383065522,-1.3126698284309783
1.653658421021147,13.503084571917764,-0.019596450256390747,0.11791981785065388,-1.2389922363765167
1.649630609765934,13.479571291019685,-0.018763656936113083,0.10601619070248815,-1.1577515139827323
1.6457866801021712,13.458534698173363,-0.017845197004483747,0.09433231259581898,-1.0687738030635918
1.6421459950535802,13.439927673020843,-0.01682799393447762,0.0828774507614923,-0.9720179978386079
1.638731058338221,13.423701530974185,-0.015695212878466928,0.07165723539715833,-0.8676317522021983
1.6355684819115492,13.409806956920416,-0.01442456261364537,0.06067204130539126,-0.7560165081807189
1.632690404429364,13.398195250743843,-0.012985699121451231,0.04991563656675328,-0.6378923290832348
1.6301366138236393,13.388819724948771,-0.011336116171167513,0.0393750852910633,-0.5143425860263589
1.6279578466118854,13.381636788814763,-0.00941404775029697,0.02903383027091004,-0.38680563611055996
1.6262213738092284,13.376605641837603,-0.0071237884654833505,0.018881855225853575,-0.2569729303490456
1.625022462903258,13.373683863924615,-0.004294410638995874,0.008944601088306258,-0.12656207969902478
