x,y,v_x,v_y,omega
2.375,32.48,0.0,4.0,-4.326530612244898
2.3736611344615177,31.691544603501015,-0.013388655384821941,3.8845539649898133,-3.974128950014868
2.369893523525167,30.92557203980602,-0.024287453978683912,3.775171671960138,-3.665292079700467
2.3641504090626486,30.180918927116462,-0.033143690646501404,3.6713594549354567,-3.3931466234450776
2.3568042433126255,29.456515167922888,-0.040317966853732616,3.5726781370002954,-3.152088570155297
2.3481621929530427,28.751373831354126,-0.046102536742092436,3.4787352286872903,-2.9375187860233654
2.33847839678544,28.064582454887436,-0.050735424933938414,3.389178535979615,-2.7456394847337307
2.327963717026196,27.395295514704937,-0.05441137265849519,3.3036908658453843,-2.573296306367301
2.3167935413982312,26.74272786823709,-0.05729038362115467,3.221985598833073,-2.417854842459632
2.305114059160696,26.106149012794294,-0.059504438754200195,3.143802955594885,-2.2771034024380126
2.2930473349145397,25.48487803471236,-0.06116280370736158,3.0689068252244605,-2.149175931298315
2.280695429799902,24.878279146875467,-0.062356247439013315,2.9970820531444673,-2.0324905171828873
2.268143763766178,24.28575773072609,-0.06316041289822735,2.928132108349331,-1.9257000440672578
2.2554638701228806,23.706756813254117,-0.06363852353474851,2.86187706637038,-1.8276523678541798
2.2427156611034595,23.140753920923892,-0.06384356665946278,2.798151856931852,-1.7373580061741931
2.2299492981805797,22.58725826173306,-0.06382006256933523,2.73680473497649,-1.6539637908843523
2.2172067415190804,22.0458081941044,-0.06360550404565511,2.6776959413101014,-1.5767312786147691
2.204523037882903,21.515968947465332,-0.06323153231611928,2.6206965250805867,-1.5050189780788934
2.1919273945137228,20.99733056445177,-0.06272490137568251,2.5656873050550373,-1.43826765444394
2.1794440772145083,20.489506038899137,-0.06210827161646627,2.5125579504712983,-1.3759881263079683
2.167093163529573,19.99212962731927,-0.06140086523288594,2.4612061653273676,-1.3177510911034296
2.154891176080543,19.504855314537515,-0.0606190092574098,2.4115369624901555,-1.2631786084456504
2.1428516164641986,19.02735541668116,-0.05977658690603894,2.3634620160734148,-1.2119369443300523
2.1309854163895476,18.5593193068494,-0.05888541384046991,2.316899082244192,-1.1637305368504867
2.119301319731891,18.100452250621146,-0.05795555273609579,2.2717714800383506,-1.118296889807817
2.1078062067591423,17.65047434012196,-0.05699557699139264,2.228007624953526,-1.0754022368941387
2.096505369822062,17.209119516718054,-0.05601279237941024,2.185540609085534,-1.0348378481286884
2.0854027482026956,16.7761346735679,-0.05501342381425335,2.144307822415992,-0.9964168734638473
2.0745011285114434,16.351278830269084,-0.05400277309826638,2.1042506105721706,-0.9599716371906463
2.063802315955404,15.934322372713186,-0.05298535246212827,2.065313964986804,-0.9253513118963532
2.053307280923389,15.525046352024141,-0.05196499785802044,2.0274462419036468,-0.892419912997055
2.043016284610128,15.123241837121938,-0.05094496527459079,1.990598907118377,-0.8610545648607597
2.032928986804719,14.728709316037502,-0.04992801277949861,1.9547263037259743,-0.8311439977034484
2.023044538473213,14.341258141617441,-0.04891647053556224,1.9197854404746255,-0.8025872411384127
2.0133616613536676,13.960706017708915,-0.047912300659892264,1.8857357986106422,-0.7752924857708011
2.0038787164390843,13.586878522313299,-0.04691714848594223,1.85253915534551,-0.749176088779424
1.9945937629371462,13.219608664549689,-0.045932386533437196,1.8201594222905808,-0.7241617031960875
1.9855046090557544,12.858736472581452,-0.04495915228048072,1.7885624973917853,-0.7001795137229372
1.9766088557619435,12.504108609936274,-0.04399838065762777,1.7577161290599703,-0.6771655645362309
1.9679039344923037,12.155578017896737,-0.043050832038770775,1.7275897913353897,-0.6550611667040088
1.959387139650126,11.813003581858169,-0.04211711638300676,1.698154569050285,-0.6338123746709248
1.951055656603732,11.476249819746762,-0.04119771408093171,1.6693830520637651,-0.6133695227974536
1.9429065857981842,11.14518659076635,-0.04029299397454671,1.6412492377403474,-0.593686814232867
1.9349369635057987,10.819688822899387,-0.03940322894930933,1.613728440929289,-0.5747219554926642
1.9271437796671183,10.499636257728689,-0.0385286094374941,1.5867972107776867,-0.5564358310351016
1.9195239932111658,10.184913211273166,-0.03766925512203076,1.5604332537775258,-0.5387922129156426
1.9120745451901828,9.875408349644765,-0.03682522508780009,1.5346153625065,-0.5217575012652786
1.9047923700182332,9.57101447843657,-0.03599652663169516,1.5093233495754466,-0.5053004919075333
1.8976744050638101,9.271628344844778,-0.03518312291253479,1.4845379863424557,-0.48939216791512274
1.8907252676418427,8.977151201337335,-0.03430825130713939,1.4602334487319795,-0.4718813014589557
1.8839488076294115,8.687487832470357,-0.03345634881717246,1.4364002399378002,-0.45516477052396254
1.877340482713409,8.402545643859998,-0.03262690034285395,1.4130216461657954,-0.4391971926628861
1.8708958549211532,8.122235308180688,-0.031819377579703954,1.3900817106272982,-0.4239362697292837
1.8646105928242807,7.846470618067247,-0.03103324338902033,1.3675651905071167,-0.40934254496333805
1.8584804729339108,7.575168347333037,-0.03026795551467746,1.3454575168349896,-0.39537918175936
1.8525013804089845,7.308248119946189,-0.029522969734586284,1.3237447570334975,-0.3820117619568881
1.8466693091832052,7.045632286249283,-0.028797742523207662,1.3024135799355634,-0.3692081017337871
1.8409803616017613,6.787245805947446,-0.02809173329123073,1.2814512230828148,-0.3569380833880096
1.835430747646671,6.533016137425921,-0.027404406259671967,1.2608454621324265,-0.3451735014783405
1.8300167838189023,6.282873132991195,-0.026735232018013828,1.2405845822148391,-0.33388792195664796
1.82473489173616,6.036748939659901,-0.026083688809409214,1.220657351098104,-0.323056553067612
1.819581596497191,5.79457790514742,-0.02544926358028115,1.2010529940266985,-0.31265612691895206
1.814553524856491,5.556296488733388,-0.024831452826719697,1.181761170113616,-0.3026647907378385
1.8096474032472378,5.321843176704579,-0.02422976326581227,1.1627719501744784,-0.29306200692922546
1.8048600556850218,5.091158402096987,-0.023643712356347234,1.1440757959014574,-0.2838284611408014
1.8001884015803746,4.864184468478541,-0.02307282869012538,1.1256635402829944,-0.2749459776184509
1.7956294534841288,4.64086547753196,-0.022516652272331947,1.1075263691827986,-0.26639744120671965
1.791180314786195,4.421147260213839,-0.021974734707005988,1.0896558039984034,-0.2581667254117769
1.7868381773853401,4.2049773112814215,-0.02144663930154407,1.0720436853257818,-0.2502386260006665
1.7826003193449507,3.992304726992625,-0.02093194110234937,1.0546821575621863,-0.24259879966099773
1.7784641025475008,3.7830801457979497,-0.02043022687214828,1.0375636543845725,-0.23523370729032692
1.7744269703584747,3.5772556918549228,-0.01994109501811343,1.0206808850456912,-0.22813056152491956
1.7704864453087907,3.374784921206924,-0.01946415547872699,1.0040268214342858,-0.22127727815387602
1.7666401268032912,3.1756227704785154,-0.018999029576268218,0.9875946858498023,-0.21466243109721525
1.7628897012954683,2.9799003557147685,-0.018505225501962205,0.9696294617876753,-0.24304832622661998
1.7592342634831204,2.787760070899253,-0.01804915262151692,0.9517733863674604,-0.27300307630554616
1.7556663475298993,2.5991803776945304,-0.01763000691069415,0.9340235456797552,-0.3044218654880858
1.752178653777636,2.414140309397805,-0.01724693061193721,0.9163771372874908,-0.33720215723083463
1.748764058927143,2.2326194490447406,-0.016899017892993577,0.8988314662431511,-0.3712434681156809
1.7454156251374862,2.0545979082728856,-0.016585320003574558,0.8813839414753942,-0.4064471462129507
1.7421266081406657,1.88005630687179,-0.016304849964631545,0.8640320725355564,-0.44271615307175316
1.738890464462048,1.7089757529485397,-0.01605658682154585,0.8467734666969463,-0.47995484842668223
1.735700857830952,1.5413378236386137,-0.015839479489411275,0.8296058264023122,-0.5180687767055266
1.7325516648604502,1.3771245462926416,-0.015652450215609712,0.8125269470574026,-0.5569644544110925
1.7294369800706877,1.216318380069783,-0.015494397682014764,0.795534715171191,-0.5965491574313433
1.7263511203258481,1.0589021978680506,-0.015364199766381372,0.778627106846116,-0.6367307073054276
1.7232886287512335,0.9048592685209726,-0.015260715979765329,0.7618021866246554,-0.677417255438313
1.7202442781938427,0.7541732391883329,-0.015182789594139424,0.7450581067017387,-0.7185170642130958
1.7172130742872582,0.6068281178665629,-0.015129249471705962,0.7283931065159698,-0.759938283896946
1.7141902581796158,0.4628082559413258,-0.015098911604720688,0.7118055127364231,-0.801588724173276
1.7111713089819525,0.3220983307010883,-0.015090580371910892,0.695293739665975,-0.8433756190581999
1.7081519459932855,0.1846833277258142,-0.015103049514759256,0.6788562900867967,-0.8852053838726499
1.7051281307584096,0.050548523059248396,-0.015135102834000515,0.662491756578867,-0.9269833628415032
1.7020960690146492,-0.08032053493346325,-0.015185514603603017,0.6461988233482464,-0.9686135657764692
1.6990522125846648,-0.2079380441291434,-0.015253049696240953,0.6299762686085266,-1.009998392168917
1.6959932612739648,-0.3323179677466399,-0.01533646341076013,0.6138229675664417,-1.0510383408707962
1.6929161648340536,-0.45347405411040853,-0.015434500988350376,0.5977378960712729,-1.0916317033747562
1.689818125055218,-0.5714198572172933,-0.015545896800004731,0.581720134997569,-1.1316742385169156
1.686696598056887,-0.6861687582612532,-0.01566937318330635,0.5657688754420522,-1.1710588262159103
1.6835492968483996,-0.7977339882883214,-0.015803638901567035,0.5498834248286174,-1.2096750976285022
1.6803741942389663,-0.9061286521742176,-0.015947387192765974,0.5340632140303465,-1.2474090388440848
1.6771695261827384,-1.0113657541407264,-0.016099293369511387,0.5183078056347532,-1.2841425649574532
1.6739337956533609,-1.113458225054039,-0.01625801192426667,0.5026169034984028,-1.3197530610517507
1.6706657771523115,-1.2124189517798811,-0.016422173086225438,0.48699036376001714,-1.354112886293662
1.6673645219669542,-1.3082608089066454,-0.01659037876734755,0.4714282075075945,-1.387088836995141
1.6640293643077178,-1.4009966931899456,-0.016761197825017976,0.4559306353254177,-1.418541564138298
1.660659928469479,-1.4906395611206449,-0.016933160557371284,0.4404980439815405,-1.4483249405057936
1.657256137180311,-1.5772024700743899,-0.017104752334307437,0.4251310455558768,-1.4762853722293159
1.653818221321647,-1.6606986235653451,-0.01727440625233131,0.40983048935369404,-1.50226104929585
1.650346731227991,-1.7411414212006449,-0.017440494684231436,0.3945974869992824,-1.5260811293845953
1.6468425498020847,-1.81854451401653,-0.0176013195748285,0.37943344115960254,-1.5475648494197036
1.6433069077135036,-1.892921865973186,-0.017755101310982912,0.3643400784069671,-1.5665205595239629
1.6397414009857103,-1.96428782249302,-0.017899965966949052,0.34931948679138103,-1.5827446748058775
1.6361480113196292,-2.032657187047505,-0.018033930693863314,0.3343741587534909,-1.5960205418418827
1.632529129551944,-2.098045306929045,-0.01815488698298876,0.31950704006189534,-1.6061172191707624
1.6288875827052647,-2.1604681694845738,-0.018260581483805178,0.30472158549336464,-1.6127881751031357
1.6252266651572582,-2.219942510231327,-0.018348593996259127,0.29002182197418314,-1.6157699124049734
1.6215501745400949,-2.276485934412541,-0.018416312175373515,0.2754124198379786,-1.614780539026732
1.61786245308494,-2.3301170536650133,-0.0184609023761771,0.2608987726867602,-1.6095183186152409
1.6141684352561574,-2.3808556395336637,-0.018479275911647126,0.24648708599975572,-1.599660256412303
1.6104737026880005,-2.4287227955350374,-0.018468049769921814,0.23218447401400982,-1.5848608087669476
1.6067845476614004,-2.473741149270438,-0.018423500496079333,0.21799906334002436,-1.564750852943858
1.6031080466702052,-2.515935065607323,-0.01834150941587299,0.203940100028816,-1.5389371256308377
1.5994521460743885,-2.5553308810105335,-0.018217496542294404,0.19001805400330293,-1.5070024443320185
1.5958257625046093,-2.591957157446892,-0.01804633915549574,0.17624471036027511,-1.4685071811507928
1.5922389017055014,-2.6258449515085758,-0.01782226883558195,0.16263323025659282,-1.422992684918494
1.5887028011149398,-2.6570280899193293,-0.01753873707003394,0.14919815385095303,-1.3699876739830317
1.5852301040612795,-2.685543435581849,-0.017188233466569478,0.13595530277424153,-1.3090190830984882
1.5818350776714796,-2.7114311177189876,-0.01676203043142969,0.12292151859711128,-1.2396294771628389
1.5785338935070465,-2.734734684232535,-0.016249811212901175,0.11011414653839216,-1.1614039497540254
1.5753450013763306,-2.7555011132474974,-0.015639110094256573,0.0975501436112306,-1.0740103243399115
1.5722896456294109,-2.7737805946626466,-0.014914447374942125,0.08524467054027228,-0.9772571551356917
1.5693926042115358,-2.7896259669287033,-0.014055966803808545,0.07320905212031209,-0.8711736375788778
1.5666832814652656,-2.8030916861605633,-0.013037260658894732,0.06144814019831202,-0.7561122194592587
1.5641973699814051,-2.814232254094854,-0.011821854179707547,0.04995753914460767,-0.6328650896002861
1.5619794477426319,-2.823100217897114,-0.010357368208025384,0.03872209887799249,-0.5027656075482778
1.5600872047877492,-2.829744317789583,-0.008565061340800793,0.027718900046714255,-0.36771462938995875
1.5585989704380088,-2.8342093825217773,-0.0063172821566048806,0.016931747275247662,-0.2300428292123334
1.5576304839158872,-2.8365424911310413,-0.003367583064610982,0.006399338817378194,-0.09212581769787989
