x,y,v_x,v_y,omega
2.375,32.48,0.0,2.3076923076923075,-3.224489795918368
2.374522814846235,32.04569102842225,-0.0050230016185760125,2.2639810773366484,-3.0704938992759967
2.3731461036992827,31.619566333950765,-0.009468694665134534,2.2215420223631575,-2.9270748485162006
2.3709737052776134,31.201390123264037,-0.013398657141909614,2.1803128269707974,-2.793265751899602
2.3680984347588545,30.790938044585513,-0.016867348318711256,2.140235369645278,-2.6682057444363423
2.3646033498836876,30.38799642651367,-0.01992301878831192,2.1012553469004183,-2.551126645058562
2.3605628563669097,29.99236158420363,-0.02260849191461318,2.063321940573702,-2.4413415008926447
2.35604367514671,29.603839185220032,-0.024961836719062536,2.02638752241152,-2.338234722336974
2.3511056905213894,29.222243668469748,-0.02701694881063054,1.9904073907493676,-2.2412535638934186
2.3458026953328805,28.847397710527922,-0.028804053173672593,1.95533953495406,-2.149900747236824
2.3401830469479634,28.479131734427916,-0.030350140351772685,1.9211444239933892,-2.0637280568404632
2.3342902457730257,28.11728345662209,-0.03167934570020217,1.887784816067941,-1.982330766161859
2.328163446346339,27.76169746835852,-0.03281327984386852,1.8552255867064618,-1.9053427751476175
2.3218379096264146,27.412224848175878,-0.03377131720796581,1.8234335731108202,-1.8324323585927367
2.315345403890359,27.06872280260909,-0.03457084843472701,1.7923774328553566,-1.763298440444136
2.3087145606349897,26.731054332533297,-0.03522750162179326,1.762027515310911,-1.697667322069811
2.3019711910054528,26.399087922862087,-0.03575533658385549,1.7323557443860493,-1.6352898033033305
2.2951385675362292,26.072697253565742,-0.036167015723760076,1.7033355113649298,-1.5759386441030723
2.2882376753572284,25.75176093019205,-0.03647395458151471,1.674941576779203,-1.5194063222468739
2.281287436476168,25.436162232261413,-0.036686454692805556,1.6471499803853966,-1.4655030488668963
2.274304910283539,25.125788878073617,-0.03681382101907466,1.6199379584335178,-1.4140550090207589
2.267305473026443,24.82053280460894,-0.0368644658977314,1.5932838675104248,-1.3649027990601894
2.26030297865268,24.520289961334523,-0.03684600119450768,1.5671671143255708,-1.317900036434172
2.2533099031284904,24.224960116840066,-0.036765320112752825,1.5415680908792413,-1.2729121208622216
2.2463374740753452,23.9344466773275,-0.036628669920350465,1.516468114516177,-1.2298151286276466
2.2393957873474815,23.648656516068375,-0.03644171668874153,1.4918493724220114,-1.188494824147165
2.232497768633457,23.367501577834133,-0.03616900661678151,1.4676762932015748,-1.1470638391970531
2.2256544689654927,23.090896878894775,-0.03586572673020897,1.4439521166864207,-1.1074624378849884
2.218871356102532,22.81875860394684,-0.03553546130095941,1.420661303818166,-1.0695886655570943
2.212153249390986,22.551005824864728,-0.03518145145215551,1.397789002309323,-1.0333473218614864
2.2055043818234386,22.28756037386524,-0.034806628206236735,1.3753210082116196,-0.9986494419338676
2.1989284561374007,22.028346723729396,-0.034413642173112956,1.3532437300604192,-0.9654118227761269
2.192428695557837,21.77329187461137,-0.034004890243345555,1.3315441553924745,-0.933556590431893
2.186007889721875,21.522325247001085,-0.0335825396088884,1.3102098194526512,-0.9030108040347763
2.1796684362663403,21.275378580440517,-0.0331485493967387,1.289228775921751,-0.8737060932214756
2.173412378507666,21.032385837624272,-0.03270469016825052,1.268589569512382,-0.8455783257700707
2.1672414395983988,20.793283113542746,-0.03225256150824808,1.2482812102931549,-0.8185673026497483
2.1611570535043376,20.558008549351612,-0.031793607902922426,1.2282931496134901,-0.7926164779571625
2.155160393110641,20.32650225067468,-0.03132913308335744,1.208615257512169,-0.7676727014711652
2.14925239573348,20.09870621006828,-0.030860312992023044,1.1892378015025422,-0.7436859817856971
2.1434337862855632,19.8745642333951,-0.03038820751236263,1.1701514266361888,-0.7206092681836359
2.1377050983186807,19.654021869872953,-0.029913771086399303,1.1513471367548358,-0.6983982495953376
2.132066693143948,19.43702634558072,-0.02943786233184239,1.132816276847649,-0.6770111691470796
2.1265187772103866,19.223526500218618,-0.028961252758274412,1.1145505164376188,-0.6564086529488901
2.1210614179045626,19.013472726933998,-0.02848463467145178,1.0965418339267887,-0.6365535519003116
2.1156945579179625,18.806816915036574,-0.02800862834539513,1.0787825018355655,-0.617410795408241
2.1104180283144545,18.60351239543894,-0.027533788533635306,1.0612650728763398,-0.5989472560146275
2.1052315604173177,18.4035138886691,-0.027060610383593538,1.0439823668062205,-0.5811316240248472
2.100134796623784,18.206777455311762,-0.02658953481150041,1.026927458007851,-0.5639342913111682
2.095127300244698,18.013260448744663,-0.026120953389402922,1.010093663751091,-0.5473272435409282
2.090208564457599,17.822921470044584,-0.025655212790588345,0.993474533091845,-0.5312839601467644
2.0853809363984595,17.635926506982504,-0.02516192467403553,0.9748934991405775,-0.558684940761458
2.0806438065243578,17.45245147722542,-0.02470260031651106,0.9564226035655684,-0.5876101671878766
2.075990790908964,17.272475728188702,-0.02427651142447479,0.9380589652419941,-0.6179500267099931
2.0714156496244835,17.095979143870256,-0.02388287051742586,0.9197998170574347,-0.6495969545039053
2.0669122974477334,16.922942123527996,-0.023520836606259227,0.9016425023347512,-0.682445197699565
2.062474813534856,16.7533455610001,-0.023189520371398615,0.883584471643125,-0.7163905826722792
2.0580974501566573,16.58717082459477,-0.022887988872798085,0.8656232799919109,-0.7513302845883219
2.0537746405807775,16.424399737477096,-0.022615269820669987,0.8477565844046963,-0.7871625982200137
2.049501006181708,16.265014558480637,-0.022370355432695655,0.8299821418738205,-0.82378670902911
2.0452713628550563,16.108997963271257,-0.0221522059004805,0.8122978076985964,-0.8611024634929519
2.041080726808426,15.956333025789593,-0.021959752485101,0.7947015342136553,-0.8990101376151549
2.036924319797762,15.80700319989716,-0.021791900258731074,0.7771913699172402,-0.9374102025211228
2.0327975738750648,15.660992301148791,-0.02164753050650243,0.7597654590129578,-0.9762030859877939
2.0286961357109545,15.518284488611222,-0.021525502799919733,0.7424220413825234,-1.0152889286960423
2.024615870553685,15.378864246643793,-0.021424656750287548,0.7251594530114638,-1.0545673339223043
2.020552865884878,15.242716366552713,-0.021343813447681055,0.7079761268946504,-1.0939371093023833
2.016503434831491,15.109825928024591,-0.02128177658797325,0.6908705944540169,-1.1332959992040377
2.0124641193933415,14.980178280238299,-0.02123733328728209,0.673841487506957,-1.1725404061348406
2.008431693545961,14.85375902254621,-0.021209254579882663,0.6568875408308263,-1.2115650994867846
2.0044031662796225,14.730553984606484,-0.02119629559209935,0.6400075953768076,-1.250262909778057
2.0003757846371872,14.610549205837135,-0.0211971953809039,0.6232006021952998,-1.2885244063942038
1.9963470368159262,14.493730914049795,-0.021210676421844685,0.6064656271451221,-1.326237556654475
1.992314655401837,14.380085503106322,-0.02123544372646172,0.5898018564703869,-1.363287363833665
1.9882766208092018,14.269599509424136,-0.021270183564435396,0.5732086033421102,-1.3995554815547155
1.984231165003352,14.162259587136344,-0.02131356176029978,0.5566853154767438,-1.434919801732838
1.980176775590912,14.058052481689746,-0.021364221528539395,0.5402315839611114,-1.4692540129988996
1.9761122003693035,13.956965001637304,-0.021420780804184865,0.5238471534330215,-1.502427126260745
1.9720364524361467,13.85898398835117,-0.021481829018516366,0.5075319337894342,-1.5343029637803938
1.9679488159695884,13.764096283347289,-0.021545923261044733,0.4912860136198289,-1.564739607860244
1.9638488528026448,13.672288692872193,-0.02161158375941551,0.47510967559168904,-1.593588804954419
1.9597364099286818,13.583547949356415,-0.02167728859808827,0.4590034140480869,-1.6206953207706656
1.9556116280913494,13.497860669285977,-0.021741467584358805,0.4429679551144311,-1.645896241731346
1.9514749516309928,13.415213306983112,-0.021802495156236144,0.42700427965256726,-1.6690202180600677
1.947327139781153,13.33559210371881,-0.02185868221050162,0.4111136494453384,-1.6898866438134539
1.9431692796336586,13.258983031502453,-0.021908266710489486,0.3952976370426401,-1.7083047694730291
1.9390028010196085,13.185371730807212,-0.021949402911091317,0.3795581597493618,-1.7240727433772183
1.9348294935868873,13.11474344139409,-0.02198014901228998,0.36389751828350025,-1.7369765794918588
1.9306515263937385,13.047082925293104,-0.02199845302085561,0.348318440674244,-1.7467890510550719
1.926471470383488,12.982374380889343,-0.022002136560727772,0.33282413199690974,-1.7532685128727081
1.9222923241595256,12.920601346948207,-0.0219888763230887,0.31741833054138,-1.7561576600387807
1.9181175435444855,12.861746595305299,-0.021956182782595736,0.30210537096291434,-1.7551822384141156
1.9139510754867917,12.805792010854262,-0.021901375719444564,0.286890254837456,-1.7500497334784204
1.9097973969766409,12.752718457409703,-0.021821555966352258,0.2717787287894901,-1.7404480808608118
1.9056615597603062,12.702505628033695,-0.02171357262664576,0.2567773699053352,-1.7260444663932695
1.90154924180911,12.655131878541901,-0.021573984754364995,0.24189367737669634,-1.70648431945564
1.8974668067278901,12.610574043224414,-0.021399016100582043,0.22713616807053053,-1.6813906557921
1.893421372609844,12.568807232442172,-0.021184500931482036,0.21251447174253366,-1.6503640021956347
1.8894208923132076,12.529804612865458,-0.020925817980481,0.1980394185386651,-1.6129832458541526
1.8854742478365423,12.493537172963709,-0.020617808089678842,0.18372310674289738,-1.5688079101394876
1.8815913625450011,12.459973479309799,-0.020254668663386616,0.16957893171931424,-1.5173825854961547
1.87778333668227,12.429079433854312,-0.019829814102203358,0.15562154675947937,-1.4582445629769407
1.874062614273783,12.400818049262664,-0.019335684934501354,0.14186671209996293,-1.390936154867614
1.870443193810699,12.375149269550484,-0.018763477834804847,0.12833096908089328,-1.3150237590568354
1.8669409020137329,12.352029877441126,-0.01810275160694466,0.1150310531228851,-1.2301264117041564
1.8635737611322403,12.331413548383715,-0.01734083661929285,0.10198293695513216,-1.135957253426474
1.8603624981911981,12.313251132383062,-0.01646193118115019,0.08920038936752077,-1.0323816417302902
1.8573312733500633,12.297491262228384,-0.015445698725533256,0.07669298068172722,-0.9194947106587896
1.8545087505459725,12.28408138341134,-0.014265067633315698,0.0644636384450445,-0.7977172745792621
1.8519297090230116,12.272969240490134,-0.012882737871534782,0.05250628704132665,-0.6678993019544681
1.8496375300420422,12.264104669422618,-0.011245461928144134,0.04080498735358862,-0.5314019110031345
1.8476881943205763,12.257441122219142,-0.00927386145570612,0.02933761478825729,-0.39010331663892794
1.8461573331075263,12.252935446444585,-0.006840467102717351,0.018090551259705732,-0.24625425468548354
1.845155781450119,12.25054184842459,-0.0037021819226212053,0.007105217371845487,-0.10211988038756298
