x,y,v_x,v_y,omega
2.375,32.48,0.0,2.769230769230769,-4.6938775510204085
2.3737144156976413,31.85084383917937,-0.011178993933555757,2.7016923683399026,-4.383080324263577
2.3700540840209023,31.236890504376817,-0.020649977168521877,2.637032282117083,-4.103063478095359
2.3643830899301808,30.637500904446377,-0.028663014924707964,2.5750511955389217,-3.8498714957420197
2.357012578056825,30.052079551208557,-0.03542839266968621,2.5155692673986305,-3.6201510810901962
2.348209098047627,29.480070377097626,-0.04112360741029932,2.4584235509572787,-3.411046469982296
2.3382014982305255,28.920953095185936,-0.04589899969493225,2.4034658569704757,-3.220115144654907
2.32718664663775,28.37424001051415,-0.04988231850311364,2.3505609662624507,-3.0452595406919225
2.3153341991983396,27.839473210410716,-0.0531824418395886,2.2995851215935033,-2.8846713857657256
2.302790589554085,27.31622207574878,-0.05589242463218885,2.2504247450320185,-2.7367860858169646
2.2896823798872448,26.804081066063183,-0.05809200725337783,2.2029753391905516,-2.6002451546871055
2.2761190848106168,26.30266773998524,-0.059849689065128595,2.1571405397481125,-2.4738651213489016
2.262195558895829,25.811620979160146,-0.06122444932432802,2.1128312935135276,-2.3566116826202417
2.2479940214307135,25.33059938913484,-0.062267180807111716,2.069965141489169,-2.2475781255681095
2.233585778478771,24.85927985496786,-0.06302188834021535,2.028465590397607,-2.145967242164017
2.219032691493819,24.397356232759265,-0.06352669413762835,1.9882615592423218,-2.051076113323037
2.2043884330368937,23.94453816110681,-0.06381468374867823,1.9492868899094828,-1.962283260690154
2.1896995631033285,23.500549978801747,-0.06391462002145432,1.9114799127432431,-1.8790377601932566
2.1750064538507603,23.065129736986677,-0.06385154739218062,1.8747830595617025,-1.800849987281247
2.1603440858557463,22.638028295588505,-0.06364730473837435,1.8391425178137397,-1.7272837243055241
2.145742735208276,22.21900849517378,-0.0633209617613705,1.8045079205751293,-1.6579494090302607
2.1312285676150724,21.807844396499565,-0.06288919122300739,1.770832067896333,-1.59249834233617
2.1168241530939884,21.404320580987985,-0.062366587221201794,1.738070675682624,-1.5306177047918803
2.102548912699525,21.008231506167945,-0.06176593794804393,1.7061821488394404,-1.4720262574411478
2.088419506940988,20.61938091082579,-0.06109845995227872,1.6751273758749876,-1.4164706230902344
2.074450174073735,20.23758126520852,-0.06037399976296229,1.6448695425360618,-1.3637220615167889
2.0606530252070816,19.862653262143645,-0.05960120777315779,1.6153739623758758,-1.3135736660996045
2.0470383021365395,19.494425345391488,-0.05878768849242383,1.586607922425484,-1.265837920973709
2.0336146029382465,19.13273327193977,-0.05794013062316918,1.5585405423720762,-1.2203445674135092
2.020389079631122,18.7774197052948,-0.05706441987356636,1.531142645845031,-1.176938736110511
2.007367611594293,18.42833383712593,-0.056165736968424716,1.5043866425799253,-1.1354793086400394
1.9945549579044888,18.08533103488596,-0.055248642942914226,1.478246420376307,-1.0958374769438048
1.9819774125968637,17.74827572687756,-0.05412131625382659,1.4526693014359215,-1.0525163937518522
1.9696582553453084,17.41703765756698,-0.05300179028143593,1.4276617360473634,-1.0113982803515524
1.9575954517032783,17.09148840537351,-0.05189215443186869,1.4032013265045367,-0.9723427464337977
1.9457865241168033,16.771504569036225,-0.05079417240704586,1.3792668155588244,-0.9352200437571333
1.9342286221300693,16.456967513687964,-0.04970932312977104,1.3558380135564707,-0.8999101326128917
1.9229185837644465,16.14776313304799,-0.0486388365712967,1.3328957311389373,-0.8663018410149146
1.9118529891675338,15.843781626510786,-0.047583725140988145,1.310421717010669,-0.8342921063503876
1.9010282074874292,15.544917290016695,-0.04654481120774739,1.2883986003292547,-0.803785290478666
1.8904404378052615,15.251068319687295,-0.04552275124588405,1.2668098373176933,-0.7746925603493031
1.8800857448532884,14.962136627295877,-0.044518057032143954,1.2456396617381176,-0.746931327152653
1.8699600901542357,14.678027666722315,-0.04353111426396598,1.224873038901547,-0.7204247378365506
1.8600593591380408,14.398650270612887,-0.0425621989203365,1.2044956229195745,-0.6951012135377771
1.8503793847230647,14.123916496529976,-0.04161149164467245,1.1844937169318288,-0.6708940301018016
1.840915967788733,13.853741481934996,-0.04067909039299629,1.1648542360679948,-0.6477409364110212
1.8316648949142038,13.588043307400746,-0.03976502155943071,1.145564672925489,-0.625583806720938
1.822621953712006,13.326742867497469,-0.03886924976402764,1.1266130653638757,-0.6043683236244332
1.8137829460457193,13.069763748840593,-0.03799168646455317,1.1079879664350412,-0.5840436886342397
1.8051436993859356,12.817032114827875,-0.03713219753356521,1.0896784162842594,-0.5645623576995167
1.796700076528257,12.568476596629928,-0.03629060992450982,1.0716739158717885,-0.5458797992597657
1.7884479838703844,12.324028190031235,-0.03546671753525267,1.0539644023776995,-0.5279542726931375
1.7803833784219543,12.08362015774889,-0.0346602863641385,1.0365402261644345,-0.5107466252406663
1.7725022737002414,11.847187936884023,-0.03387105904206187,1.0193921291822439,-0.49422010568681507
1.7648007446468053,11.614669051186151,-0.03309875881390553,1.0025112247122914,-0.47834019325308397
1.7572749316843121,11.38600302783388,-0.032343093033859266,0.9858889783509449,-0.46307444031806855
1.7499274981079522,11.161243022438015,-0.03154763371709514,0.9685458511783095,-0.46797994132094256
1.742759174788639,10.940457059943899,-0.03078561253780207,0.9513320835531344,-0.4753279885977306
1.7357622542919176,10.723615836836224,-0.030057174390211588,0.934243769557095,-0.48498472634195977
1.7289290115316693,10.510690929154638,-0.029362327872815383,0.917277166804529,-0.49682071372396036
1.7222517337098582,10.30165475578464,-0.028700957534240033,0.9004286885867656,-0.5107106056501827
1.7157227475545007,10.0964805434872,-0.028072835121041306,0.883694896608348,-0.5265328470206491
1.709334444076692,9.895142293534793,-0.027477629903382903,0.8670724942821451,-0.5441693791418513
1.703079301050753,9.697614749828638,-0.026914918148260428,0.850558320553989,-0.5635053570161277
1.6969499034062308,9.503873368378372,-0.026384191804105346,0.834149344230929,-0.5844288762829161
1.6909389617064101,9.313894288030909,-0.025884866455205928,0.8178426587904962,-0.6068307086326902
1.6850393288751342,9.127654302340073,-0.025416288599367193,0.8016354776515634,-0.6306040445511686
1.6792440153219879,8.945130832472735,-0.024977742297558104,0.7855251298904946,-0.6556442422797496
1.6735462026051775,8.766301901050554,-0.02456845523992256,0.7695090563893408,-0.6818485818982102
1.6679392557617176,8.5911461068291,-0.024187604268425002,0.7535848064058895,-0.7091160234475441
1.6624167344257081,8.419642600118202,-0.023834320392527125,0.7377500345584559,-0.7373469680143593
1.6569724028475465,8.251771058848515,-0.02350769333061644,0.7220024982214371,-0.7664430206933568
1.65160023891979,8.087511665189997,-0.023206775606398614,0.7063400553309046,-0.7963067543308477
1.6462944423090533,7.926845082627608,-0.022930586226092377,0.6907606626028943,-0.8268414729296952
1.641049441787768,7.769752433398651,-0.022678113958997794,0.6752623741706512,-0.8579509735640762
1.6358599018547895,7.616215276194168,-0.022448320240814994,0.6598433406509272,-0.8895393056105132
1.6307207287297627,7.466215584024148,-0.022240141715939528,0.644501808653585,-0.9215105260491097
1.6256270758027704,7.319735722142358,-0.022052492431820468,0.6292361207533,-0.9537684495251045
1.620574348618151,7.176758425921808,-0.021884265695304248,0.6140447159471492,-0.9862163917849146
1.6155582094694594,7.0372667785657335,-0.021734335597665896,0.5989261306274164,-1.0187569050118381
1.610574581681381,6.901244188531489,-0.02160155821171176,0.5838790001051427,-1.05129150348354
1.6056196536540326,6.768674366535805,-0.021484772460883376,0.5689020607269021,-1.0837203778552604
1.6006898827455154,6.63954130199917,-0.021382800656656552,0.553994152635145,-1.1159420962382742
1.5957819990698834,6.513829238774523,-0.021294448696664248,0.5391542232313594,-1.1478532900913954
1.5908930092899074,6.391522649990602,-0.021218505911822966,0.5243813314114338,-1.179348322773284
1.586020200487229,6.2726062118230566,-0.02115374454625003,0.5096746526541662,-1.2103189384141713
1.5811611441967919,6.157064775986264,-0.021098918848856552,0.4950334850570801,-1.2406538885570035
1.5763137006979104,6.0448833407153835,-0.021052763750112332,0.4804572564288247,-1.2702385337901296
1.571476023661123,5.936047019981121,-0.021013993091518485,0.46594553256475046,-1.2989544173477603
1.5666465652581987,5.8305410106481865,-0.020981297368692906,0.4514980268520631,-1.3266788073932658
1.5618240818525198,5.728350557252234,-0.02095334094155896,0.4371146113736042,-1.3532842044289581
1.557007640398709,5.629460914028179,-0.020928758656795877,0.42279532970512773,-1.3786378100027015
1.5521966256940727,5.53385730377461,-0.02090615181830226,0.4085404116302649,-1.4026009526197711
1.5473907486404315,5.441524873083626,-0.020884083430751196,0.39435029003047595,-1.4250284665381936
1.5425900556935441,5.35244864340202,-0.020861072629140723,0.38022562024434997,-1.445768018958026
1.537794939698967,5.266613457317288,-0.020835588193268716,0.36616730223159266,-1.4646593810551773
1.533006152338303,5.184003919379677,-0.02080604102989701,0.35217650592154964,-1.4815336384254187
1.5282248184389182,5.104604330678786,-0.020770775486492525,0.33825470017315634,-1.496212336892113
1.5234524524340882,5.028398616289476,-0.020728059338116007,0.32440368582083684,-1.50850656043459
1.518690977300048,4.955370244587634,-0.020676072262231587,0.3106256333256175,-1.5182159394204264
1.5139427463428003,4.8855021373127165,-0.020612892583400946,0.2969231255867105,-1.5251275896754186
1.5092105682624095,4.818776569124299,-0.020536482028694427,0.2832992064864883,-1.5290149866373837
1.5044977359882208,4.755175055269884,-0.02044466818164047,0.2697574357258294,-1.5296367845501022
1.499808059858344,4.694678225861594,-0.020335124252070964,0.25630195043323084,-1.5267355992870704
1.4951459058158743,4.637265685167591,-0.02020534568244805,0.24293753386245595,-1.5200367862986937
1.4905162394203892,4.582915854288611,-0.02005262297394493,0.2296696911721516,-1.509247264314431
1.4859246766382055,4.531605795656176,-0.019874009914608366,0.21650473171859216,-1.4940544636628972
1.4813775425977216,4.483311018027649,-0.019666286089600533,0.20344985635557009,-1.4741255195557679
1.4768819398073323,4.438005261173707,-0.019425912087696715,0.19051324672220027,-1.4491068914335938
1.472445827782329,4.395660260422819,-0.01914897508624474,0.17770415111161927,-1.4186246781290588
1.4680781166946386,4.356245492895962,-0.018831121328453406,0.16503295781757119,-1.382286027365304
1.4637887786781136,4.319727910004175,-0.018467470119591198,0.15251124124144735,-1.3396822237343449
1.4595889820115495,4.286071665126208,-0.01805250089400921,0.14015175769739352,-1.290394303674906
1.4554912559236666,4.255237852073023,-0.01757989987018989,0.1279683558085766,-1.234002414867964
1.4515096978148514,4.227184279931773,-0.017042344554290705,0.11597574976750563,-1.17010063424524
1.4476602412438322,4.201865324218975,-0.01643119084587592,0.1041890825176851,-1.098319585434756
1.4439610136573178,4.179231913699255,-0.015736005558597877,0.09262318287118525,-1.0183598860593117
1.440432830046837,4.159231736022917,-0.014943851923843118,0.08129140561868821,-0.930039966087321
1.4370998964109345,4.1418097686708,-0.01403817969269999,0.07020396266058856,-0.8333615039134497
1.4339908412666673,4.1269092502086195,-0.012997082431361984,0.059365763097514845,-0.7285932734194606
1.4311402653155247,4.11447316719946,-0.011790534535095426,0.04877408915605068,-0.6163671663091137
1.4285911234646878,4.104446178816104,-0.01037591634174669,0.03841711417746493,-0.49776546391456283
1.4263985087772415,4.096776521610618,-0.008690298331700272,0.028275557174597496,-0.37435526039882283
1.4246361136069083,4.09141662154946,-0.006634877062499932,0.01833226944417237,-0.24810259636993506
1.4234094051015111,4.088319093227259,-0.004032153419215876,0.008602759444536841,-0.12109719976103489
