x,y,v_x,v_y,omega
2.375,32.48,0.0,3.0256410256410255,-2.7346938775510203
2.3743732997888825,31.881889514908345,-0.006267002111173616,2.955463825275482,-2.562447782942906
2.372585313235184,31.297535979648178,-0.011612863425812378,2.8880715273262165,-2.4063971057888334
2.369807330926928,30.72639989151333,-0.016166959656747915,2.8232893540222403,-2.2645660265213343
2.3661867340481346,30.167975228663085,-0.020039009131188147,2.7609572744802002,-2.1352633879598275
2.361850598464118,29.62178666064819,-0.023322346708975712,2.700928405668746,-2.0170361589131143
2.3569087036052276,29.087387057034128,-0.0260966018799262,2.643067630471881,-1.9086313496529248
2.3514560535266416,28.564355254315366,-0.02842989890593763,2.5872503967157554,-1.8089646963108712
2.3455749964715005,28.052294047823647,-0.03038067164547427,2.5333616682014357,-1.7170947953807332
2.339337012677698,27.550828380571858,-0.03199916629254715,2.481295004316444,-1.6322016485780526
2.332804227025052,27.05960370522982,-0.033328690233913154,2.4309517491039507,-1.5535687936679574
2.3260306926499967,26.5782844989139,-0.0344066535166417,2.3822403140552675,-1.4805683641342429
2.319063483274487,26.10655291335035,-0.03526544023845408,2.3350755415802116,-1.412648551250559
2.311943625256728,25.644107545365934,-0.035933139939134266,2.2893781382639284,-1.3493230448014986
2.3047068949286476,25.190662314663676,-0.03643416334167236,2.2450741687586517,-1.29016210981533
2.2973845023712585,24.74594543753028,-0.036789762232219275,2.202094602575307,-1.2347850210647484
2.290003679185714,24.309698486552616,-0.037018469623225206,2.1603749072013625,-1.1828536284565911
2.2825881848815524,23.88167552763945,-0.03713647341839221,2.1198546819302573,-1.1340668675877403
2.2751587440957115,23.46164232668798,-0.03715793444001602,2.080477327584479,-1.0881560628631708
2.2677334248745606,23.049375619131514,-0.037095257771490246,2.042189747980185,-1.0448808973325547
2.2603279666155545,22.644662436379413,-0.03695932481857412,2.0049420795408026,-1.0040259451097298
2.252956064910631,22.247299483831373,-0.03675969223066033,1.9686874459396086,-0.9653976799150409
2.245629619408448,21.85709256573218,-0.036504762791167454,1.9333817350523324,-0.9288218877251613
2.238358949875371,21.47385605264268,-0.03620193253960054,1.8989833958426536,-0.894141423360227
2.231152984852285,21.09741238774881,-0.0358577176912653,1.8654532530960481,-0.8612142605843386
2.2240194266485798,20.727591628622328,-0.03547786434578571,1.8327543381688058,-0.8299117933405649
2.216964895864019,20.364231021391866,-0.035067443499820224,1.8008517341358155,-0.800117352403186
2.2099950581655845,20.00717460458746,-0.03463093348452262,1.7697124339082548,-0.7717249072626038
2.203114735655162,19.65627284019112,-0.03417229161970696,1.7393052100551103,-0.7446379276668267
2.196328004832939,19.311382269665195,-0.03369501660251902,1.709600495204167,-0.7187683830929694
2.189638282880778,18.972365192942593,-0.0332022029190946,1.6805702720218245,-0.6940358616465602
2.1830484037513287,18.639089368552472,-0.03269658837539597,1.6521879718793915,-0.670366792594349
2.1765606853456094,18.31142773322368,-0.032180595681798665,1.6244283814085438,-0.6476937590163306
2.170176988888445,17.9892581394596,-0.03165636888984592,1.5972675562322274,-0.6259548889872588
2.163898771462997,17.67246310971328,-0.03112580536462956,1.5706827412309823,-0.6050933153263984
2.157727132538636,17.360929605913206,-0.030590583878982235,1.544652296769786,-0.58505669533546
2.1516628552174195,17.05454881319941,-0.030052189333183127,1.5191556303681593,-0.5657967831188255
2.145706442830722,16.75321593682785,-0.029511934533793718,1.4941731333474222,-0.5472690480805738
2.1398645855917877,16.456830711254387,-0.028906637855549974,1.4696791223872345,-0.5275816902531315
2.1341430222553646,16.165296477427823,-0.028308995508679973,1.4456632158784175,-0.5087947875506663
2.128540170934867,15.878519316856323,-0.02771951769629907,1.422108389836592,-0.4908565022440773
2.1230543569119154,15.596408638357861,-0.027138622533213284,1.398998395148046,-0.47371854541898867
2.1176838299312943,15.318877027512201,-0.026566647272995757,1.3763177133085385,-0.45733589553225945
2.1124267793821825,15.045840104664894,-0.02600385821812386,1.3540515151645223,-0.44166654225618673
2.1072813476131618,14.777216390906379,-0.025450459472081764,1.3321856224206372,-0.4266712530772121
2.102245641598733,14.512927181494472,-0.024906600672208814,1.310706471698412,-0.412313360395287
2.097317743149048,14.252896426229622,-0.02437238382464048,1.2896010809500897,-0.3985585671158363
2.0924957178318273,13.997050616329751,-0.023847869347566126,1.268857018048602,-0.3853747689428304
2.0877776227554814,13.745318677385875,-0.02333308141589228,1.2484623713901506,-0.37273189177259
2.0831615133449946,13.497631868010881,-0.022828012688976274,1.228405722359799,-0.3606017427568408
2.0786454492267823,13.253923683822592,-0.022332628493147204,1.208676119523103,-0.3489578737529944
2.0742274993252616,13.01412976642846,-0.02184687052205828,1.1892630544182234,-0.337775456012081
2.0699057462620214,12.778187817103305,-0.0213706601103441,1.170156438833336,-0.3270311650722901
2.065678290138043,12.546037514873618,-0.020903901129440933,1.1513465834635517,-0.3167030749304992
2.061543251770235,12.317620438742253,-0.020446482548640163,1.1328241778501078,-0.30677056065707714
2.057498775445433,12.092879993806005,-0.019998280699376356,1.1145802715123678,-0.2972142087020031
2.053543031247865,11.871761341035743,-0.019559161276307104,1.0966062561902405,-0.2880157342141518
2.04967421700975,11.654211330504609,-0.019128981104841628,1.0788938491210895,-0.2791579047614982
2.045890559929131,11.44017843786439,-0.01870758970134851,1.0614350772810845,-0.27062446989891664
2.0421903178940704,11.22961270388365,-0.018294830649259824,1.0442222625263284,-0.26240009608297815
2.0385717805479806,11.022465676873615,-0.01789054281163666,1.0272480075740076,-0.25447030648040303
2.0350332701269744,10.818690357839383,-0.01749456139842441,1.0105051827683094,-0.2468214252592078
2.0315731420966756,10.618241148204554,-0.017106718904565686,0.9939869135799737,-0.23944052598964563
2.028192868085955,10.421245200182359,-0.01669602120263864,0.9759725666419957,-0.2663266663076849
2.0248913785177582,10.227841048054877,-0.016318874479330194,0.9580689546328155,-0.2948367878824527
2.021662019658882,10.038006842157092,-0.01597471410943215,0.9402731043450322,-0.32486481259676686
2.0184982574104358,9.851721316083811,-0.015662908375030413,0.922582156387761,-0.356307022893737
2.0153936900812437,9.66896376434044,-0.015382764916888596,0.9049933610459447,-0.3890618347035239
2.0123420599259516,9.4897140207845,-0.015133536636032327,0.8875040745134523,-0.4230295751257406
2.0093372635540114,9.313952437784188,-0.01491442708336887,0.8701117554896817,-0.45811226396381
2.0063733613085053,9.141659866022039,-0.014724595371694713,0.8528139621317972,-0.4942133982112361
2.0034445857072214,8.972817634873142,-0.014563160641145606,0.8356083493571695,-0.531237738586754
2.0005453490325067,8.807407533288117,-0.01442920610600213,0.8184926664930919,-0.5690910972055016
1.997670250151131,8.645411791111464,-0.014321782707752934,0.8014647552734359,-0.6076801254564068
1.9948140806407144,8.486813060765655,-0.014239912396411416,0.7845225481846368,-0.6469121011315571
1.9919718302951481,8.331594399230564,-0.014182591059253853,0.7676640671662849,-0.6866947138209493
1.9891386920778855,8.179739250246467,-0.014148791113371608,0.7508874226746904,-0.7269358475451778
1.9863100665889803,8.031231426666881,-0.014137463775680079,0.7341908131211509,-0.7675433595486545
1.9834815661092848,7.886055092884735,-0.01414754102127457,0.7175725247003046,-0.8084248541161327
1.9806490182833334,7.744194747251903,-0.014177937238238993,0.7010309316279982,-0.8494874502047679
1.977808469501093,7.605635204407847,-0.014227550584165805,0.6845644968125738,-0.8906375416017179
1.9749561880380062,7.470361577427738,-0.014295264046701632,0.6681717729884946,-0.931780548222285
1.9720886670126005,7.338359259694204,-0.014379946207356012,0.6518514043468573,-0.9728206570546067
1.9692026272214087,7.209613906389148,-0.014480451704560998,0.6356021287037031,-1.0136605511326031
1.9662950199121023,7.08411141549335,-0.014595621388503248,0.6194227802542623,-1.054201124777835
1.9633630295576001,6.961837908170974,-0.01472428215651895,0.6033122929694921,-1.0943411831916303
1.9604040766965691,6.842779708403956,-0.014865246453791591,0.5872697047006711,-1.1339771242997274
1.9574158209092238,6.726923321727032,-0.015017311419662187,0.5712941620685869,-1.1730026005512342
1.9543961640017593,6.614255412897549,-0.015179257654983073,0.5553849262262238,-1.2113081581505376
1.9513432534782067,6.504762782315119,-0.015349847580542192,0.5395413795980869,-1.2487808509537628
1.9482554863850958,6.398432340983742,-0.015527823350567469,0.5237630337156799,-1.2853038259899057
1.9451315136221798,6.295251083783423,-0.01571190427859013,0.5080495382875252,-1.3207558772710783
1.9419702448217822,6.195206060788287,-0.0159007837253872,0.49240069166384937,-1.3550109642380308
1.938770853910223,6.098284346333795,-0.01609312539020464,0.4768164528810624,-1.3879376908499297
1.9355327854775195,6.004473005495701,-0.01628755893683006,0.46129695549988503,-1.4193987409781041
1.9322557620963208,5.913759057597325,-0.016482674875157567,0.4458425234838639,-1.4492502654135884
1.9289397927481597,5.826129436308687,-0.016677018606452425,0.43045368940250267,-1.4773412154661192
1.9255851825348824,5.741570945839868,-0.016869083526320543,0.41513121528568386,-1.5035126178461529
1.9221925438759409,5.6600702126609335,-0.017057303063096482,0.3998761165036608,-1.5275967853244143
1.9187628094185736,5.581613632100613,-0.01724004151057643,0.3846896890995607,-1.5494164576197713
1.9152972469182952,5.506187309084815,-0.017415583492206534,0.3695735410584243,-1.5687838671710874
1.9117974763822474,5.433776992173293,-0.01758212186827132,0.35452962805679483,-1.5854997250424856
1.9082654898086902,5.364367999937933,-0.017737743867302497,0.3395602942968049,-1.5993521234001742
1.9047036739033212,5.297945138599918,-0.017880415186385813,0.32466831908333266,-1.6101153530845662
1.9011148362086723,5.234492609707264,-0.01800796176010544,0.30985696984321426,-1.6175486382259796
1.8975022351485418,5.1739939064932265,-0.0181180488411993,0.2951300622971484,-1.6213947952634256
1.893869614568183,5.116431697418072,-0.018208156962387863,0.28049202845440524,-1.62137883207339
1.8902212434469472,5.061787695275559,-0.018275554249969253,0.2659479929707288,-1.617206515592716
1.8865619615797304,5.010042510165199,-0.01831726442219893,0.2515038581328788,-1.6085629553739962
1.8828972321767916,4.961175484630012,-0.018330029607188877,0.2371663972190079,-1.595111278952165
1.8792332025341012,4.915164509398739,-0.018310266819715277,0.22294335509372945,-1.5764915171458949
1.875576774203791,4.871985818547522,-0.018254016483387106,0.20884355341844013,-1.5523198799378717
1.8719356844881818,4.8316137636585275,-0.018156880672704594,0.19487699547150159,-1.5221886957922213
1.8683186016601123,4.794020567930904,-0.018013947607990365,0.1810549618047441,-1.4856674227229165
1.8647352371916077,4.759176063537804,-0.017819697077056256,0.1673900821262522,-1.4423053372012173
1.8611964796444425,4.727047419330717,-0.017567878394596684,0.15389635994463102,-1.3916367929256706
1.8577145570624967,4.697598871993851,-0.01725134742485974,0.14058911342403732,-1.3331903480572516
1.854303238248491,4.67079148292261,-0.01686184071519789,0.1274847772883762,-1.2665036212175684
1.8509780891116576,4.646582956616015,-0.01638965065313596,0.11460048577757062,-1.1911464730421273
1.8477568098370405,4.624927575302287,-0.01582314209303296,0.10195332735969448,-1.1067559804049107
1.844659694400441,4.605776328881468,-0.01514801227296312,0.08955913684849424,-1.0130874637052363
1.841710279879449,4.589077345690207,-0.01434613293695861,0.07743069506411111,-0.9100859317100503
1.838936295448581,4.574776746167036,-0.013393711371718516,0.06557530016761437,-0.7979802939993081
1.836371090854298,4.562820018159538,-0.012258334571110308,0.053991979907356054,-0.6773957867283453
1.8340558449704538,4.553153886402722,-0.010894124267333587,0.04266933766079235,-0.5494642068568802
1.8320430968086219,4.545728305869385,-0.00923335735098533,0.0315864676725878,-0.4158841857233404
1.830402780590607,4.540497442639751,-0.007169804829163887,0.02072216462374751,-0.27885201091884904
1.8292343601984622,4.5374166303159775,-0.004514399092282255,0.010085958613996969,-0.14077285567073175
1.8287038719192297,4.536423186130197,-0.0007904837000435264,-0.0001515167562021625,-0.003750120526825884
