x,y,v_x,v_y,omega
2.375,32.48,0.0,3.230769230769231,-3.4693877551020407
2.37405570695,31.810108578020962,-0.00899326714285517,3.1491490737929992,-3.2269969924734228
2.371375067948212,31.156975085885147,-0.016536628112270243,3.0711698989290404,-3.01010560880862
2.3672389674002385,30.519861706225072,-0.022854805677952537,2.9965765740240653,-2.8152580692159255
2.361885052723321,29.89808165151297,-0.028134857911741685,2.925138232757867,-2.6395499675488017
2.3555149178813157,29.290994383366296,-0.032533092964496954,2.8566452734009307,-2.4805284434149066
2.348299980467875,28.69800141276945,-0.03618059668732141,2.7909068275213906,-2.3361125766319235
2.340386311851318,28.118542592031734,-0.03918767585131241,2.7277486080759252,-2.2045293647090904
2.3318986238373216,27.552092826144914,-0.041647448091512836,2.6670110670366522,-2.0842619400139193
2.322943572366366,26.99815914426525,-0.043638756393778885,2.6085478080077165,-1.9740074626392023
2.313612505625339,26.456278082297004,-0.04522854590171741,2.5522242107375033,-1.8726427081836632
2.3039837582041383,25.926013335692787,-0.0464738104906696,2.4979162331121794,-1.7791958097535558
2.2941245727949826,25.406953648114282,-0.04742319340604946,2.445509362873608,-1.6928229481782406
2.2840927150979238,24.898710906883355,-0.0481183084707008,2.3948976964685387,-1.6127890407890233
2.2739378350752277,24.400918420473346,-0.048594834602593874,2.345983126483948,-1.5384516767849405
2.263702617746171,23.91322935684807,-0.048883425674141334,2.2986746223281926,-1.46924770058898
2.2534237587671684,23.43531532440887,-0.04901046936397805,2.252887591378463,-1.4046819643085524
2.2431327936676144,22.966865079776838,-0.048998722060344294,2.208543309878992,-1.3443178643634204
2.232856804476448,22.507583348711655,-0.04886784166504812,2.165568414551336,-1.2877693514624542
2.2226190233205942,22.05718974822245,-0.048634836009749355,2.123894447250627,-1.2346941618739584
2.212439349203423,21.615417799417173,-0.048314441296646214,2.0834574461329254,-1.1847880647438938
2.202334791422308,21.182014021910817,-0.04791944233301685,2.044197577737143,-1.1377799576716416
2.1923198508358976,20.75673710170578,-0.0474609442042274,2.0060588051679464,-1.0934276728522363
2.182406848346398,20.339357125399744,-0.04694860331481947,1.968988588222918,-1.0515143803814886
2.172606208442847,19.929654874390913,-0.04639082433804477,1.9329376118611843,-1.0118454949957307
2.162926704396436,19.527421173458084,-0.04579492848491828,1.897859539880036,-0.9742460085173078
2.1533756706593263,19.13245628870881,-0.04516729758279288,1.8637107910654591,-0.9385581833346832
2.143959187154654,18.744569370427435,-0.044513497699797136,1.830450335423781,-0.9046395529404174
2.1346822394257234,18.36357793682653,-0.043838385432877366,1.7980395083943685,-0.8723611843387595
2.12554885801114,17.98930739511961,-0.043146199467917506,1.7664418411953275,-0.8416061643804719
2.1165622399090154,17.62159059669856,-0.04244063959993613,1.7356229056718164,-0.8122682780754459
2.1077248545704337,17.260267423521476,-0.04172493505322453,1.7055501722051845,-0.7842508519054933
2.099038536506357,16.905184403102403,-0.041001903652266816,1.6761928794050451,-0.7574657392966199
2.0905045662917296,16.556194349747702,-0.040274003153705704,1.6475219144492312,-0.7318324288621944
2.082123741496461,16.21315602990909,-0.039543375848855984,1.6195097030613759,-0.7072772589170984
2.073896438857607,15.875933849724,-0.038811887378320704,1.592130108225193,-0.6837327241866848
2.0658226688241434,15.54439756299315,-0.03808116055943195,1.5653583368305186,-0.6611368626733404
2.0579021234499715,15.218421998005226,-0.03735260490886916,1.5391708535306527,-0.6394327123631086
2.050134218478015,14.897886801762176,-0.036627442443095126,1.5135453011650455,-0.618567828908785
2.042518130344708,14.582676200287288,-0.035906730255069776,1.488460427167212,-0.5984938566581535
2.0350631059621898,14.272679762136995,-0.035093501959388526,1.463886602835572,-0.576387069933549
2.0277772268011347,13.967791133560596,-0.034295823383992986,1.4398146217015737,-0.5553240946688466
2.020657205991393,13.667906856904079,-0.03351389861354493,1.4162261083605063,-0.5352430247613849
2.013699722631967,13.372927242563126,-0.03274784766670702,1.393103552029531,-0.5160863219413034
2.006901438205326,13.082756192762652,-0.031997718301301506,1.370430255594045,-0.49780045889797575
2.0002590106693026,12.797301035661917,-0.031263496327491036,1.3481902882224794,-0.48033559543583376
1.9937691065199314,12.516472369066275,-0.030545114618903267,1.326368441259812,-0.4636452842521725
1.9874284110813654,12.240183913084632,-0.029842460986486585,1.3049501871367915,-0.447686203316392
1.9812336372466688,11.968352371124407,-0.02915538505824377,1.2839216410558147,-0.43241791216915115
1.9751815328651734,11.700897298663776,-0.02848370428933207,1.2632695252359156,-0.41780262975746874
1.969268886947648,11.437740979284545,-0.027827209210909518,1.2429811355186642,-0.40380503168338583
1.9634925348392234,11.178808307488893,-0.027185668012181488,1.2230443101542041,-0.39039206497410905
1.9578493624914493,10.924026677859455,-0.02655883053804783,1.2034474006023586,-0.37753277868461693
1.9523363099486524,10.673325880155424,-0.025946431774304356,1.1841792441979193,-0.36519816882302614
1.9469503741496053,10.426637999967728,-0.02534819488328851,1.1652291385420572,-0.35336103624757115
1.9416886111331364,10.183897324584006,-0.024763833844985095,1.146586817493386,-0.34199585632445895
1.936548137725478,9.945040253739712,-0.024193055751760444,1.128242428642732,-0.3310786592603549
1.9315261327776554,9.71000521495488,-0.023635562798931944,1.1101865121651895,-0.32058692013379575
1.9266198380129083,9.478732583177607,-0.02309105400818427,1.0924099809517063,-0.3104994577480964
1.9218265585368361,9.251164604474994,-0.022559226716311116,1.0749041019303078,-0.3007963415157945
1.9171436630565544,9.027245323530416,-0.02203977785780304,1.0576604784942365,-0.29145880566264165
1.912568583849519,8.806920514722638,-0.021532405066342193,1.0406710339608023,-0.2824691701087216
1.908098816517743,8.590137616577731,-0.02103680761723787,1.0239279959906942,-0.27381076744643124
1.9037319195587636,8.3768456693989,-0.02055268723018604,1.0074238819029249,-0.2654678754906552
1.8994655137809056,8.16699525589241,-0.020079748749413054,0.9911514848255502,-0.25742565492624864
1.895301118529672,7.9606759263568385,-0.019581158405193526,0.9737945107513077,-0.27577835186409577
1.8912381470626614,7.757989598277323,-0.01911380794728807,0.9565514709583496,-0.2960079880483878
1.8872700618016638,7.558912677450682,-0.01867748025268988,0.9394192035810796,-0.31800531267949506
1.8833903801692562,7.363422220824106,-0.018271868627382493,0.9223946690529793,-0.341663999312137
1.879592692550664,7.171495911343225,-0.017896584883018308,0.90547494505063,-0.3668804120411053
1.8758706786281774,6.983112033820223,-0.017551166759712137,0.8886572218350987,-0.39355337882409736
1.8722181222205174,6.798249451740247,-0.01723508474181204,0.8719387979741946,-0.42158397104428696
1.868628924750122,6.616887584927657,-0.01694774830957166,0.855317076431442,-0.4508752884370939
1.8650971174526907,6.439006387996315,-0.016688511665964308,0.8387895610099011,-0.4813322485214415
1.8616168724354503,6.264586329510443,-0.016456678974420283,0.8223538531412463,-0.5128613796856304
1.8581825126834353,6.093608371784271,-0.0162515091400082,0.8060076490127802,-0.5453706170817537
1.8547885211065678,5.926053951250054,-0.01607222016349265,0.7897487370273727,-0.578769100480225
1.8514295487144512,5.761904959324845,-0.01591799309475947,0.7735749955936737,-0.6129669732272963
1.848100422000527,5.601143723706638,-0.015787975609281652,0.7574843912464007,-0.6478751814331699
1.8447961496125513,5.443752990030365,-0.015681285228580283,0.7414749770990697,-0.6834052724961276
1.8415119283822365,5.2897159038133665,-0.015597012202991018,0.7255448916342669,-0.719469192038615
1.8382431487833146,5.139015992618624,-0.015534222072454501,0.7096923578394728,-0.7559790782939513
1.8349853998842662,4.99163714836202,-0.015491957918483311,0.6939156826996155,-0.7928470529367208
1.8317344738594465,4.847563609687157,-0.015469242317893503,0.6782132570609761,-0.8299850072952869
1.8284863701204064,4.706779944327842,-0.015465079006298725,0.6625835558848691,-0.8673043828205015
1.8252372991277892,4.56927103137399,-0.015478454256720954,0.6470251389137281,-0.9047159446097245
1.8219836859433594,4.43502204335147,-0.015508337975943816,0.6315366517769347,-0.9421295466987685
1.8187221735814545,4.304018428020147,-0.015553684518389526,0.6161168275689959,-0.9794538877353095
1.8154496262195217,4.176245889786845,-0.015613433214302934,0.6007644889386354,-1.0165962555345294
1.812163132328407,4.0516903706212055,-0.01568650860583679,0.5854785507341049,-1.0534622588900815
1.8088600077847674,3.9303380303520683,-0.015771820381207783,0.5702580232576887,-1.0899555448696643
1.8055377990304353,3.8121752262099413,-0.015868262993384893,0.5551020161911253,-1.1259774996632985
1.8021942863468285,3.6971884914671875,-0.01597471494572608,0.5400097432636671,-1.1614269308726919
1.798827487316661,3.585364513011175,-0.016090037722535772,0.5249805277459594,-1.1961997289308348
1.7954356605503463,3.4766901076669114,-0.01621307433760557,0.5100138088660607,-1.2301885051215866
1.7920173097607213,3.371152197063779,-0.01634264746834606,0.49510914925902305,-1.2632822034294138
1.7885711882771567,3.2687377808158082,-0.01647755713703085,0.480266243578777,-1.2953656831905034
1.7850963040989138,3.1694339077558347,-0.016616577893852433,0.4654849284209643,-1.32631926924048
1.7815919255979336,3.073227644930178,-0.016758455448817152,0.4507651937281623,-1.35601826596533
1.7780575879932692,2.9801060440218414,-0.016901902690845638,0.4361071958750252,-1.3843324313684904
1.7744931007333535,2.8900561048256037,-0.01704559502263559,0.4215112726605781,-1.411125406980623
1.770898555938464,2.803064735347043,-0.017188164928691737,0.40697796046857493,-1.4362540991784185
1.7672743380744258,2.7191187080388985,-0.017328195681198134,0.392508013894692,-1.4595680072737138
1.7636211350501503,2.638204611620907,-0.017464214073806092,0.37810242818143147,-1.480908493627366
1.7599399509564622,2.5603087978528514,-0.01759468205655788,0.36376246484767655,-1.5001079910974064
1.7562321206923395,2.485417322544194,-0.017717987125560903,0.34948968094904503,-1.516989143441426
1.7524993267578677,2.413515879986683,-0.017832431297981552,0.33528596245582165,-1.5313638749954086
1.748743618531655,2.344589729888984,-0.01793621847547093,0.32115356228415465,-1.543032387244175
1.7449674343953165,2.278623615775558,-0.0180274399658486,0.30709514355798856,-1.5517820820715353
1.7411736271202811,2.2156016736879494,-0.018104057891631532,0.29311382870496344,-1.5573864149521068
1.7373654929946976,2.1555073299005123,-0.01816388616154503,0.2792132549849028,-1.559603686734175
1.733546805243434,2.098323186242954,-0.018204568612393723,0.26539763699185026,-1.558175790856579
1.7297218523864046,2.0440308915237466,-0.01822355383550361,0.2516718365244163,-1.552826945144058
1.7258954822961872,1.9926109974960866,-0.018218066071330037,0.23804143992950186,-1.5432624556346202
1.7220731528652102,1.9440427978402717,-0.01818507136654644,0.22451284250681627,-1.5291675869819763
1.7182609903916792,1.8983041488148942,-0.018121237905177463,0.2110933386872586,-1.5102066538871861
1.7144658570675162,1.8553712706490941,-0.018022888991611724,0.19779121527272744,-1.4860225066152408
1.7106954293426708,1.815218529555846,-0.017885946483107113,0.18461584275821502,-1.4562366694043962
1.7069582895166862,1.7778182016626864,-0.01770586138341343,0.1715777562242549,-1.4204505155090725
1.7032640337835452,1.7431402225112933,-0.017477526551261002,0.15868871188425684,-1.3782480434280922
1.6996234013173306,1.7111519295493167,-0.017195163603164934,0.14596169727741834,-1.329201077732342
1.6960484311462767,1.681817810898579,-0.016852171359252863,0.13341086130103907,-1.2728780818269316
1.6925526570395846,1.6550992825162574,-0.01644091537114753,0.12105131376868773,-1.2088582657643383
1.6891513562807325,1.6309545286958311,-0.015952425189349476,0.10889872261632577,-1.1367533101772263
1.6858618774226306,1.6093384585301713,-0.01537594488781268,0.09696861229473107,-1.0562397590278985
1.682704087170764,1.590202853230604,-0.014698247987107286,0.08527524770116146,-0.967105754668188
1.6797010010092943,1.5734968025025324,-0.013902572598317292,0.0738299973280849,-0.8693157392965203
1.6768797018054111,1.5591675409838217,-0.012966943629142837,0.06263915999296191,-0.7630947701063933
1.6742727152832924,1.5471617700509306,-0.011861499438652815,0.05170151555838403,-0.6490278374680459
1.671920122290206,1.537427429057022,-0.010544148114550579,0.04100649390739878,-0.5281557390156839
1.6698729091732862,1.5299155624307055,-0.008953119665639778,0.030535093009913458,-0.40202584693522686
1.6681986381021532,1.5245812337150255,-0.006992319107055459,0.020268037615623576,-0.2726299334323803
1.6669926633269396,1.5213807685755896,-0.004493154942596867,0.010212582759945814,-0.14215318671679883
1.6664109404999807,1.5202549347191905,-0.0010470624570111733,0.000509644443857012,-0.012525590119486146
