x,y,v_x,v_y,omega
2.375,32.48,0.0,4.0,-5.183673469387755
2.3734024998991696,31.691561056605046,-0.015975001008304884,3.8843894339495053,-4.761342778330182
2.368906404725956,30.925633753123925,-0.028985950723830593,3.774883600861697,-4.391238563724411
2.362051374753421,30.18104750968709,-0.03956434900151982,3.670978833506643,-4.065114405975912
2.353281064095965,29.45672677015354,-0.04813875757303812,3.57222856182888,-3.776249661292361
2.3429615272579625,28.751680435706525,-0.05505661080698683,3.4782347826412665,-3.519130396312999
2.3313957683680875,28.06499284187661,-0.060600978091763284,3.388641155657876,-3.2892043072616706
2.318835315542006,27.395815991751796,-0.0650035501690547,3.3031273455902452,-3.082690821587416
2.3054894831693424,26.743362823769594,-0.06845477355757959,3.2214043342317913,-2.8964327759281803
2.2915328245882374,26.106901340492872,-0.07111181225346969,3.1432104985354257,-2.7277797078604022
2.277111159253594,25.485749460493928,-0.07310484109296711,3.0683083014540116,-2.57449538912477
2.262346470259007,24.87927048248045,-0.07454204885290411,2.996481478680786,-2.434684092049518
2.247340901686102,24.2868690715219,-0.0755136368761426,2.9275326309047123,-2.3067314372110843
2.2321800349076977,23.70798769335447,-0.076095030907902,2.861281150769557,-2.1892566672156297
2.2169355845043945,23.142103435437072,-0.07634947312512956,2.797561428404418,-2.0810739308852115
2.2016676248636116,22.58872516354161,-0.07633012328269752,2.73622129055022,-1.9811607152329334
2.186426435623317,22.04739097079728,-0.07608176912025146,2.677120636893071,-1.8886319796056183
2.171254036285288,21.517665882717907,-0.07564222426003958,2.620130243900694,-1.8027188630545898
2.15618546635588,20.9991397871559,-0.07504347503403613,2.5651307117193474,-1.7227510781429731
2.1412498563790487,20.49142556259693,-0.07431262473427745,2.512011533870382,-1.6481422907449974
2.1264713265310253,19.99415738192593,-0.07347267374595588,2.4606702728396224,-1.5783779296678346
2.1118697425361175,19.506989171905403,-0.0725431662031212,2.411011827365644,-1.5130049822694553
2.097461353147554,19.029593211224423,-0.0715407276825185,2.362947779444174,-1.4516234202008753
2.0832593290161237,18.56165885219191,-0.07047951363178025,2.3163958108809037,-1.3938789686192983
2.069274219211081,18.102891353031367,-0.06937158441864921,2.2712791807245676,-1.3394569869608546
2.0555143387828596,17.65301080934305,-0.06822721986356235,2.227526256158554,-1.2880772728599477
2.0419860984258014,17.211751174680103,-0.0670551837070213,2.185070090470971,-1.2394896355225908
2.028694285401731,16.778859361373193,-0.06586294653368138,2.143848042598108,-1.1934701126952652
2.015642303335861,16.354094413765907,-0.06465687412501882,2.1038014334747484,-1.149817727777624
2.002832377227096,15.937226746913353,-0.06344238696263206,2.0648752350507915,-1.1083517017374946
1.990265728971533,15.528037444571623,-0.06222409559299707,2.0270177883664893,-1.068909049180565
1.977942727837881,15.126317610981591,-0.06100591574352399,1.99018054753384,-1.0313424998938
1.9658630196224198,14.731867771542003,-0.0597911664110867,1.9543178468620246,-0.9955186969622296
1.954025637621526,14.344497317985741,-0.058582653597852336,1.919386688700575,-0.9613166305804943
1.9424290980695913,13.964023994129306,-0.05738274192149334,1.8853465498637674,-0.9286262732817971
1.9310714822815571,13.590273418667874,-0.05619341595884863,1.8521592047505633,-0.8973473877569675
1.9199505073977963,13.223078641843603,-0.05501633287876099,1.8197885634921491,-0.8673884829500994
1.90906358734301,12.86227973312953,-0.05385286766910286,1.7882005236485965,-0.8386658978669953
1.8984078853705761,12.50772339735052,-0.05270415205523438,1.7573628341414858,-0.8111029956569606
1.8879803593616011,12.159262616910983,-0.051571108034517366,1.7272449702539112,-0.7846294531391759
1.8777778008773758,11.81675631801999,-0.05045447680773528,1.6978180186560234,-0.7591806331324562
1.867796868819779,11.480069059001828,-0.0493548437682331,1.669054571525598,-0.7346970287852488
1.8580341184320415,11.149070738956155,-0.0482726601091403,1.6409286289311336,-0.7111237706511336
1.8484860262686487,10.823636325189899,-0.04720826152478907,1.613415508731438,-0.6884101885628853
1.8391490116750076,10.503645597984548,-0.046161884411621217,1.5864917633220694,-0.6665094214654644
1.8300194552424232,10.188982911389676,-0.04513367991422366,1.5601351026266634,-0.6453780693081594
1.8210937146398227,9.87953696884789,-0.044123726111779116,1.5343243227911811,-0.6249758818957046
1.8123681381688816,9.575200612559527,-0.04313203859763224,1.5090392400924484,-0.6052654802800629
1.80383907634226,9.2758706255883,-0.04215857966858284,1.484260629619814,-0.5862121068573226
1.7955120732113903,8.981448621776725,-0.041111451640115454,1.4599594084959588,-0.5652374939586672
1.7873917534819255,8.691839725283188,-0.040091745654532156,1.4361295564394105,-0.5452143548117889
1.7794726937717078,8.406951334839604,-0.03909885144764378,1.4127543479964269,-0.5260883238891076
1.7717495943779444,8.126694118433331,-0.03813214248998986,1.3898178160663153,-0.50780873110061
1.7642172820043394,7.850981865954331,-0.03719098124606344,1.3673047087236998,-0.4903283106800325
1.7568707115146962,7.579731350185902,-0.036274723650367754,1.3452004489605787,-0.4736029360623637
1.7497049668590754,7.312862195577921,-0.03538272290584002,1.3234910971192297,-0.45759137816472356
1.7427152612988972,7.0502967542852595,-0.03451433269594021,1.302163315807399,-0.44225508476640313
1.7358969370403585,6.791959988993966,-0.033668909889447894,1.2812043371055486,-0.4275579789336631
1.7292454643707689,6.537779362094163,-0.032845816806448914,1.2606019318924884,-0.41346627465519387
1.7227564403796358,6.287684730791849,-0.03204442310488281,1.2403443811306436,-0.39994830804868653
1.716425587335232,6.041608247782214,-0.03126410733915376,1.2204204489657131,-0.38697438267101725
1.7102487507777662,5.799484267134876,-0.030504258235506038,1.2008193575076813,-0.3745166276169143
1.7042218973819176,5.561249255066986,-0.02976427572297991,1.1815307631712217,-0.362548867226095
1.698341112634253,5.326841705303508,-0.02904357175366687,1.162544734463558,-0.35104650133883936
1.6926025983647297,5.096202058745455,-0.02834157094156515,1.1438517311169691,-0.339986395146641
1.6870026701660228,4.869272627186618,-0.027657711045503783,1.1254425844714049,-0.32934677777954424
1.6815377547296448,4.645997520837454,-0.026991443318276107,1.1073084790202183,-0.3191071488564233
1.6762043871236938,4.426322579431545,-0.02634223274123276,1.0894409350388863,-0.30924819230000067
1.6709992080334635,4.210195306705373,-0.02570955816107083,1.0718317922228489,-0.2997516967858999
1.6659189609830194,3.997564808056456,-0.025092912343369515,1.0544731942663148,-0.2906004822554015
1.6609604895531307,3.7883817311979158,-0.024491801955519275,1.0373575743190944,-0.2817783319756442
1.6561207346085753,3.582598209639677,-0.023905747490034063,1.0204776412632968,-0.27326992967948793
1.6513967315457927,3.3801678088377365,-0.023334283137791803,1.0038263667560967,-0.26506080136076604
1.6467856075700644,3.18104547486325,-0.02277695661948933,0.9873969729887742,-0.2571372613397456
1.6422894352642903,2.9853635697049192,-0.022184766438253498,0.9694220785945414,-0.28458660861054874
1.6379076624577538,2.793265679608478,-0.021632961627110887,0.95155682236989,-0.31363046441467113
1.633632303576032,2.6047301703051495,-0.021120627190106916,0.933798270663404,-0.34416256040860627
1.6294555609948107,2.419735982948694,-0.02064679862210713,0.9161436029011669,-0.3760789731048314
1.6253698343952354,2.2382626119065456,-0.020210467373645326,0.8985901075203163,-0.4092778929983034
1.6213677290755797,2.060290083326475,-0.019810585822912407,0.8811351782803873,-0.4436593985333019
1.6174420633143805,1.8857989344041926,-0.019446071789078655,0.8637763109424206,-0.4791252339735722
1.6135858748736838,1.7147701932791222,-0.01911581261788796,0.8465111003082979,-0.5155785902431866
1.6097924267251578,1.547185359486761,-0.01881866886737305,0.8293372376153006,-0.5529238878030327
1.6060552120765614,1.3830263848968833,-0.01855347761858998,0.8122525082834771,-0.591066560618163
1.602367958771359,1.2222756550669267,-0.018319055433433144,0.7952547900160996,-0.6299128402541128
1.5987246331301312,1.0649159709396834,-0.01811420097884406,0.7783420512563245,-0.6693695391153492
1.5951194432988427,0.9109305308134346,-0.01793769733404288,0.7615123500061742,-0.7093438318058076
1.591546842165962,0.7603029125110972,-0.01778831399476569,0.7447638330171891,-0.7497430335494413
1.5880015299078996,0.6130170556728167,-0.017664808585856607,0.7280947353656008,-0.790474374557226
1.5844784562202225,0.4690572440933849,-0.01756592829091433,0.7115033804287096,-0.8314447691653506
1.5809728222906312,0.32840808802217936,-0.017490411004998735,0.694988180283376,-0.8725605784965407
1.5774800825687678,0.19105450633861665,-0.017436986213633716,0.6785476365522335,-0.9137273653116216
1.5739959463875581,0.056981708510541296,-0.017404375598464153,0.6621803417284903,-0.9548496396204269
1.5705163794910217,-0.07382482376391408,-0.017391293366901404,0.6458849810160929,-0.9958305935088076
1.5670376055243431,-0.20137935533839624,-0.017396446299883357,0.6296603347287152,-1.036571823510464
1.5635561075435112,-0.32569591694112887,-0.01741853350843762,0.6135052812986209,-1.0769730387072172
1.5600686296040651,-0.44678832516650147,-0.01745624588602134,0.5974188009550971,-1.116931752577698
1.5565721784915065,-0.564670203276215,-0.01750826523956382,0.5813999801420385,-1.1563429564307792
1.5530640256597805,-0.679355002965977,-0.01757326307769706,0.5654480167555839,-1.1950987720550519
1.5495417094490351,-0.7908560272711043,-0.017649899029756066,0.5495622262957062,-1.2330880809880265
1.546003037659691,-0.8991864548047346,-0.017736818863686804,0.5337420490405972,-1.2701961275577442
1.5424460905668296,-1.0043593655457812,-0.017832652064926367,0.5179870583698774,-1.3063040925749596
1.5388692244671853,-1.1063877684210155,-0.017936008931515802,0.5022969703824398,-1.3412886342569312
1.5352710758607282,-1.20528463095701,-0.018045477133054648,0.48667165497748455,-1.3750213926466917
1.5316505663801756,-1.301062911314098,-0.018159617672472605,0.4711111485934231,-1.4073684534595379
1.5280069085949464,-1.3937355930563697,-0.018276960179820324,0.4556156688292648,-1.438189766950168
1.524339612831346,-1.4833157230600236,-0.01839599745618192,0.44018563120726045,-1.4673385170636495
1.5206484951684116,-1.5698164530181842,-0.01851517917316274,0.42482166837435936,-1.494660435833557
1.516933686789202,-1.6532510850639923,-0.018632904618933032,0.40952465208370536,-1.5199930577551377
1.513195644890792,-1.7336331221069656,-0.01874751436516771,0.3942957183460126,-1.5431649087412966
1.509435165383278,-1.8109763235609577,-0.018857280709970132,0.379136296193888,-1.5639946243402454
1.50565339763934,-1.8852947672362461,-0.018960396729411164,0.3640481405590003,-1.5822899922674696
1.5018518615920153,-1.9566029182741786,-0.019054963743837344,0.3490333698203558,-1.5978469151449726
1.4980324675202876,-2.0249157061200123,-0.019138976973439463,0.33409450863797874,-1.6104482908872344
1.4941975389110422,-2.0902486106571487,-0.01921030911901395,0.3192345367334165,-1.6198628107762996
1.4903498388435599,-2.1526177587610675,-0.019266691555808364,0.30445694430574544,-1.6258436794399278
1.486492600411297,-2.2120400326677867,-0.019305692766819534,0.28976579476146125,-1.6281272674356353
1.482629561778555,-2.2685331916799996,-0.019324693560601635,0.2751657953606934,-1.6264317170459364
1.4787650065717508,-2.322116008835714,-0.019320858507439722,0.2606623761964382,-1.6204555368125517
1.4749038104339804,-2.3728084242112857,-0.01929110287026353,0.24626177755928977,-1.6098762426355182
1.4710514947393485,-2.4206317164763647,-0.01923205407605605,0.2319711450914728,-1.5943491363913176
1.467214288689207,-2.4656086940893758,-0.01914000642535728,0.2177986310386344,-1.5735063620393683
1.4633992013268804,-2.5077639070052413,-0.019010867197909124,0.20375349812000523,-1.5469564514610663
1.459614105461291,-2.547123878786202,-0.018840091457987346,0.1898462196895921,-1.5142846784686919
1.4558678361668775,-2.5837173572965924,-0.018622601486146098,0.1760885654143062,-1.4750546947067014
1.452170307566632,-2.6175755793265196,-0.01835268451631109,0.16249365488496795,-1.428812146556143
1.4485326532397207,-2.648732539952789,-0.018023858752801408,0.14907595137769522,-1.3750912952845706
1.444967398214266,-2.6772252504070977,-0.017628691501745557,0.1358511531653825,-1.313426116327928
1.4414886747587659,-2.7030939576467503,-0.017158543053254382,0.12283591923114606,-1.2433679674315439
1.4381125011486162,-2.726382283568192,-0.01660319304824074,0.11004733998330503,-1.1645126908612178
1.4348571540204038,-2.74713722110495,-0.015950278233884802,0.09750203538427468,-1.076540861296062
1.4317436836797905,-2.7654088992675128,-0.01518442517224935,0.08521474624135328,-0.9792754811655668
1.4287966523279203,-2.7812500053397002,-0.014285888346451557,0.07319631448049269,-0.8727609087696848
1.4260452249590414,-2.7947147470707847,-0.013228385342335917,0.06145110283032783,-0.7573633463320519
1.4235248250537094,-2.8058572903835852,-0.011975613710987007,0.04997433029766397,-0.6338835879340159
1.4212797145827296,-2.814729796156122,-0.010475490998808425,0.03875072742773367,-0.5036530695174992
1.4193671796366303,-2.8213806367794447,-0.008649858462185593,0.027757678805511603,-0.3685545848040126
1.4178649657229778,-2.825854374648003,-0.006372280674338514,0.016979699880086643,-0.23088259181568319
1.4168878118825012,-2.828197942236514,-0.003399257730428653,0.00645597600505848,-0.09296545550256435
