x,y,v_x,v_y,omega
2.375,32.48,0.0,3.7948717948717947,-4.204081632653061
2.373894759895471,31.76853025558117,-0.011634106363464803,3.6942834095369066,-3.893384601345009
2.3707666644976917,31.07571917793446,-0.02129321361315604,3.598464776217927,-3.6173821885375386
2.365960274011515,30.40069412208097,-0.029300370451861197,3.507062127503034,-3.3711013506280216
2.359764194516021,29.742646269905798,-0.03592151897439701,3.4197573690777308,-3.150406395546717
2.3524208786516567,29.100824297390634,-0.041376542755749805,3.3362633942397797,-2.9518394519279716
2.344134548883375,28.474528857998504,-0.04584798112089933,3.2563201783089646,-2.772494649974332
2.335077635840783,27.863107749194285,-0.04948794564322389,3.179691493314393,-2.609918209018668
2.3253960350604954,27.265951655737865,-0.05242364151770048,3.1061621220163165,-2.462028590276155
2.3152134182179234,26.682490383705776,-0.05476179893042983,3.035535478321484,-2.3270523032491064
2.3046347838077117,26.112189514900965,-0.05659224749284675,2.967631561729169,-2.203472006540319
2.2937493930543207,25.554547423602415,-0.0579908130691661,2.9022851887818915,-2.089984325554644
2.282633206602147,25.009092607340666,-0.05902167590108061,2.839344456078605,-1.985465395348809
2.271350914054157,24.47538129117779,-0.059739298288292456,2.7786693982674744,-1.8889425793618482
2.2599576300816415,23.952995271269717,-0.060190006685553084,2.7201308112911646,-1.7995711514665658
2.248500316412508,23.441539968627517,-0.06041329509479579,2.663609216521462,-1.7166149867807317
2.237018977619478,22.9406426682203,-0.06044290272657418,2.608993945659784,-1.639430505644705
2.2255476695916854,22.44995092206461,-0.0603077080922974,2.5561823296632817,-1.5674532695495995
2.214115352365572,21.969131097867027,-0.060032473235210715,2.5050789776796507,-1.500186748267195
2.202746613217494,21.497867057239986,-0.05963846516561256,2.4555951341839837,-1.437192871948463
2.191462281276218,21.035858949582273,-0.05914397632150237,2.4076481043182363,-1.3780840564942738
2.1802799511625923,20.582822109474463,-0.058564761716661445,2.361160738921868,-1.3225164495708426
2.1692144301226026,20.138486046939242,-0.05791440712533581,2.316060971975202,-1.2701841916723948
2.1582781206453987,19.702593521202143,-0.05720464000312912,2.2722814042047945,-1.2208145242453794
2.147481348537054,19.27489968969385,-0.056445592716289905,2.229758927461443,-1.1741636070970856
2.1368326447649957,18.85517132499035,-0.05564602593695278,2.188434385206988,-1.1300129316735283
2.126338988026863,18.443186093214976,-0.054813518674967046,2.148252265060089,-1.088166236515969
2.116006013875079,18.03873188814633,-0.05395463029118518,2.1091604198730396,-1.0484468472358226
2.1058381952999925,17.641606215903966,-0.05307503892024882,2.0711098142570985,-1.0106953764234499
2.0958389989042963,17.251615625633285,-0.052179659981817186,2.034054293855357,-0.9747677296096263
2.086011020160726,16.868575182092954,-0.05127274784523734,1.997950374990196,-0.9405333721896214
2.076356100710672,16.492307976472333,-0.05035798320796276,1.9627570525953113,-0.9078738194641577
2.0668754302143815,16.12264467214,-0.049438548331939135,1.928435624587102,-0.8766813179402337
2.0575696348887202,15.759423082355177,-0.0485171919381755,1.8949495310426399,-0.846857691000761
2.0484388545535124,15.402487777266177,-0.04759628527454282,1.862264206736319,-0.8183133261821528
2.0394828097421236,15.051689717780114,-0.04667787063480986,1.830346945748562,-0.7909662847440181
2.030700860207923,14.706885914118903,-0.04576370340940768,1.7991667770010362,-0.7647415170966991
2.0220920559686046,14.367939107082634,-0.044855288583416315,1.7686943496965224,-0.7395701700692626
2.013655181869565,14.03471747022519,-0.04395391245910521,1.7389018277502504,-0.715388974033039
2.0053887965108323,13.707094331311367,-0.043060670264399345,1.709762792395233,-0.6921396996094329
1.99729126626566,13.384947911572105,-0.04217649021109908,1.6812521522285782,-0.6697686751391407
1.989360795019583,13.06816108140655,-0.04130215448444853,1.65334606004043,-0.6482263573171482
1.9815954501738238,12.756621131298544,-0.04043831757617505,1.6260218358333376,-0.6274669484401725
1.9739931853842276,12.450219556822013,-0.03958552231430924,1.5992578954985546,-0.6074480546004896
1.9665518604445138,12.148851856706194,-0.03874421389320612,1.5730336846679538,-0.5881303799170938
1.9592692586690044,11.852417343018601,-0.03791475216478616,1.5473296173067195,-0.5694774525424238
1.9521431020838385,11.560818962602387,-0.03709742241590947,1.5221270186534293,-0.5514553787375418
1.9451710646958575,11.27396312897595,-0.03629244482599417,1.4974080721511693,-0.5340326217849262
1.9383569137823837,10.991760350492207,-0.035435459526361526,1.4731474908356104,-0.5154248953313202
1.9317036699240155,10.714124246290872,-0.03459868635119869,1.4493378165468467,-0.49763495833597277
1.9252075231533425,10.440970622264242,-0.03378180597167451,1.4259634889966426,-0.48061745111511694
1.9188647266468817,10.172218175894976,-0.03298447304370262,1.4030096306798447,-0.4643300058956604
1.9126716011802378,9.907788370108012,-0.03220632134202363,1.3804620091829185,-0.44873301802594734
1.9066245386729541,9.647605314049265,-0.03144696820832961,1.3583070019617713,-0.4337894370182348
1.9007200049451312,9.391595650339777,-0.030706018400334652,1.3365315634012689,-0.4194645755053583
1.8949545417924365,9.139688448388078,-0.0299830674175033,1.3151231939850179,-0.40572593439824595
1.8893247684726755,8.891815103374732,-0.029277704369454392,1.294069911418607,-0.3925430427114295
1.8838273826853353,8.647909240551506,-0.028589514444651708,1.2733602235627122,-0.37988731068345954
1.8784591611152723,8.407906624523825,-0.0279180810296955,1.2529831030444505,-0.36773189496073755
1.8732169596027486,8.171745073209113,-0.027262987523187694,1.232927963426221,-0.35605157473895865
1.868097712994196,7.939364376185615,-0.02662381888262732,1.2131846368211294,-0.3448226378680545
1.8630984347212374,7.7107062171665675,-0.026000162937989683,1.1937433528530519,-0.3340227760259153
1.85821621614949,7.4857141003531105,-0.0253916115014566,1.1745947188675359,-0.32363098815472263
1.8534482257334357,7.264333280436514,-0.024797761299113236,1.155729701307164,-0.3136274914327176
1.8487917080090324,7.046510696036016,-0.024218214747238807,1.1371396081717655,-0.3039936391247765
1.8442439824517067,6.832194906373147,-0.02365258059303223,1.1188160724900325,-0.2947118447182492
1.8398024422238368,6.621336030996794,-0.023100474437177356,1.1007510367347368,-0.28576551180698606
1.8354645528327205,6.413885692385698,-0.022561519153519956,1.0829367381188968,-0.2771389692370849
1.8312278507173063,6.2097969612664805,-0.02203534521926094,1.0653656947149546,-0.2688174110732955
1.8270899417795703,6.0090243044959415,-0.021521590967433443,1.0480306923433496,-0.2607868409857978
1.8230484998743246,5.811523535366145,-0.0210199027719957,1.0309247721808263,-0.25303402069373676
1.819101265269397,5.617251766199935,-0.02052993517461193,1.0140412190424497,-0.24554642213489353
1.8152460430865056,5.4261673631129135,-0.020051350961087115,0.997373550294636,-0.23831218306060659
1.8114847955911002,5.238426784231326,-0.01954072793791473,0.9788430695115333,-0.27249937638814653
1.8078166305073147,5.054196845228365,-0.01907153610193363,0.9604194463090937,-0.30807330752611806
1.804233784038122,4.873457505939086,-0.01864263725798924,0.9420999146306699,-0.3449306725640208
1.8007287118495188,4.696189241691432,-0.01825285946414986,0.9238818142920194,-0.38297003226332504
1.7972940950790672,4.522373023502848,-0.017901001277445563,0.9057625876930762,-0.4220915880523582
1.7939228455770364,4.351990298867591,-0.01758583558603715,0.8877397768885792,-0.46219696079610995
1.7906081104561777,4.185022973066943,-0.017306113054579932,0.8698110210129675,-0.5031889713993163
1.787343276021362,4.021453390935243,-0.01706056520663895,0.8519740540575425,-0.5449714222895268
1.7841219711460363,3.861264319014719,-0.016847907165209893,0.8342267030005933,-0.5874488788076304
1.7809380701587219,3.704438928031731,-0.01666684006967844,0.8165668862940213,-0.6305264495061281
1.7777856952995383,3.550960775626063,-0.01651605318488468,0.7989926127130179,-0.6741095643197952
1.7746592188040187,3.40081378926336,-0.0163942257153232,0.7815019805786045,-0.7181037495286896
1.7715532646692496,3.2539822492585877,-0.016300028334876225,0.7640931773663702,-0.7624143983790401
1.7684627101556534,3.110450771835513,-0.016232124439819317,0.7467644797186163,-0.8069465361625765
1.7653826870765088,2.9702042921435137,-0.016189171130126252,0.7295142538813897,-0.8516045784784232
1.7623085829266232,2.8332280471484808,-0.01616981992130067,0.7123409565926487,-0.896292081312713
1.7592360419014257,2.699507558309133,-0.016172717186041654,0.6952431364531317,-0.9409114814684006
1.7561609658581645,2.5690286139434235,-0.016196504321971627,0.6782194358175058,-0.9853638257600666
1.7530795152719314,2.441777251181996,-0.016239817638375904,0.6612685932501662,-1.0295484872543474
1.7499881102409047,2.3177397373964403,-0.01630128795137832,0.6443894465977825,-1.0733628666844657
1.746883431597574,2.1969025509793987,-0.016379539873155446,0.6275809367394998,-1.1167020769955154
1.7437624221858457,2.079252361340995,-0.01647319077661577,0.6108421120857872,-1.1594586087840013
1.7406222883678915,1.9647760079715368,-0.016580849412375604,0.5941721339084954,-1.201521974178974
1.7374605018294869,1.85346047840342,-0.016701114149777818,0.5775702825979843,-1.242778326471422
1.7342748017584944,1.7452928848855542,-0.016832570808040504,0.5610359649584912,-1.2831100525321681
1.7310631974781872,1.6402604395607945,-0.01697379003729682,0.5445687226705593,-1.322395334765705
1.727823971625436,1.5383504279104727,-0.01712332420218775,0.5281682420696842,-1.360507679028488
1.7245556839735243,1.439550180199543,-0.017279703712673657,0.5118343654137893,-1.3973154045969352
1.7212571760107391,1.3438470406205134,-0.01744143273769691,0.49556710383914254,-1.432681091906803
1.7179275763990842,1.251228333793435,-0.017606984227091643,0.4793666522353558,-1.4664609834092097
1.7145663074527375,1.1616813282320386,-0.01777479415550453,0.4632334063056714,-1.4985043325119363
1.7111730927935258,1.0751931963316679,-0.017943254888831472,0.44716798211928066,-1.5286526952179
1.7077479663610284,0.991750970372042,-0.018110707558509822,0.4311712385083513,-1.5567391587670456
1.7042912829783692,0.9113414939559235,-0.01827543331158725,0.4152443027139561,-1.5825875013806623
1.7008037307017525,0.8339513682225999,-0.018435643284375327,0.39938859974207197,-1.6060112771692006
1.6972863452129467,0.7595668920816117,-0.018589467124107893,0.3836058859525385,-1.626812820501175
1.693740526549877,0.6881739956066006,-0.018734939855573708,0.3678982874686182,-1.644782164796895
1.6901680585121757,0.6197581656114508,-0.018869986857071044,0.3522683440592737,-1.6596958720347104
1.6865711311270442,0.5543043623013837,-0.018992406670627862,0.33671905920458073,-1.6713157715740405
1.6829523666176658,0.4917969257527446,-0.019099851322831003,0.3212539570968755,-1.6793876106998802
1.6793148493837422,0.43221947083124235,-0.019189803771099186,0.30587714733996507,-1.683639625298475
1.6756621605845394,0.37555476901826523,-0.01925955200998306,0.2905933980597715,-1.6837810483419495
1.6719984180135352,0.3217846154934847,-0.01930615926374701,0.2754082179905486,-1.6795005879470926
1.6683283220771856,0.27088967974470535,-0.019326429539933767,0.2603279477860783,-1.6704649279705241
1.6646572088489902,0.2228493379837886,-0.019316867598965157,0.24535986022360307,-1.6563173357806522
1.6609911113808298,0.1776414858060349,-0.019273632065880772,0.23051226796325955,-1.6366765089652784
1.6573368307437617,0.13524232994297591,-0.01919247990325624,0.21579463585842326,-1.6111358625644174
1.6537020186849092,0.09562615878486014,-0.01906869966361249,0.20121769212172505,-1.5792635615544066
1.6500952744000887,0.05876509283510245,-0.018897029650287375,0.18679352840200295,-1.5406037549919847
1.6465262588575396,0.024628818773550165,-0.018671555008125316,0.1725356722459218,-1.4946796898884624
1.6430058315749911,-0.006815685106516867,-0.018385574281858507,0.15845910543896996,-1.4409997034375648
1.6395462171010702,-0.0356044178881163,-0.018031420180468275,0.14458018699893974,-1.3790675476195668
1.6361612122722722,-0.06177659543359226,-0.017600209596353326,0.13091641874291396,-1.3083991274198825
1.6328664515944529,-0.085374821772767,-0.017081481749113756,0.11748596377474,-1.2285485500807423
1.6296797584659695,-0.10644513399253697,-0.016462656445446106,0.10430679643335174,-1.1391473291651064
1.6266216270833656,-0.1250368366886434,-0.01572820021354374,0.09139533720986001,-1.0399613967025236
1.6237159080364083,-0.14120201542411337,-0.014858316070216697,0.0787644389529552,-0.9309704974954627
1.6209908167373448,-0.15499460492377892,-0.013826855498873782,0.06642071367512281,-0.8124718513693424
1.6184804601101732,-0.16646892152122916,-0.012597951102930658,0.05436156629807459,-0.6852014247070741
1.6162272106475177,-0.1756777216281762,-0.011120464293442902,0.04257317166980344,-0.5504472747570486
1.61428553410529,-0.1826702449817077,-0.00931823615106125,0.031032337314715462,-0.4100982819287856
1.6127286517771497,-0.1874915820180476,-0.007069998881993866,0.019718578857275047,-0.2665386156322403
1.6116625540718434,-0.19018699646282045,-0.004152082226493755,0.008654204771911206,-0.12229409334831415
