x,y,v_x,v_y,omega
2.375,32.48,0.0,2.358974358974359,-2.7346938775510203
2.3744792173985076,31.98964005929632,-0.00495983429992699,2.311120314393975,-2.5901591286737884
2.372982184028223,31.50916520921583,-0.009297626369451169,2.2648306387535606,-2.4567993503134065
2.370631818674081,31.038255715132443,-0.013086805574759202,2.2200216858501323,-2.333476783113566
2.3675366059877083,30.57660876917152,-0.016391410485933768,2.1766158947300607,-2.219191674760094
2.3637924296537682,30.12393727326949,-0.01926741174206586,2.134541209098808,-2.113063162131511
2.3594841492690057,29.679968736736438,-0.021763830017577576,2.0937305674064612,-2.0143131147832376
2.354686960312316,29.244444274599473,-0.023923683855655777,2.0541214529455636,-1.922252433343686
2.3494675699598035,28.8171176950423,-0.02578479569208396,2.0156554952180303,-1.8362693912224168
2.3438852160907273,28.39775466593251,-0.027380479251498648,1.9782781153513633,-1.7558196835267004
2.3379925523952445,27.986131951816603,-0.028740127372147237,1.9419382095620603,-1.6804179075209265
2.331836418842554,27.582036713919923,-0.02988971598680844,1.906587865644421,-1.6096302475942716
2.32545851374854,27.185265866660203,-0.030852237289514917,1.8721821082576777,-1.5430681770200734
2.3188959811764502,26.795625485002688,-0.031648072920863496,1.8386786694329411,-1.4803830207222783
2.3121819253178764,26.412930257680543,-0.032295316208411445,1.8060377812541446,-1.4212612493078405
2.30534586175846,26.037002981897583,-0.032810051024125285,1.7742219881073749,-1.3654203959502962
2.2984141140723007,25.667674095639125,-0.03320659360596554,1.7431959762588902,-1.312605505239821
2.2914101629616184,25.304781244155002,-0.03349770268624605,1.7129264188279938,-1.262586037576824
2.2843549541237604,24.948168877557876,-0.03369476243621064,1.6833818344779625,-1.2151531646577216
2.277267170153447,24.59768787680933,-0.03380794204296395,1.6545324583653314,-1.170117401544339
2.2701634710475274,24.253195205653405,-0.03384633515627271,1.626350124072082,-1.1273065290922126
2.2630587072504786,23.914553586308585,-0.03381808195847685,1.5988081554023714,-1.0865637674355
2.2559661086433835,23.581631196950042,-0.03373047620433315,1.5718812670599518,-1.0477461670277408
2.248897452422185,23.25430138920825,-0.03359005923565242,1.545545473338077,-1.0107231886133612
2.2418632124202915,22.932442424082133,-0.03340270268714458,1.519778004053526,-0.9753754476133103
2.234872692095762,22.61593722481701,-0.033173681355994133,1.4945572270428444,-0.9415936018792312
2.2279444320156294,22.30467457885836,-0.03280974797860208,1.4698489249443152,-0.9066317062768369
2.2210948283437437,21.998547406029083,-0.03242457270602047,1.4456479591440723,-0.8733340657778642
2.2143280127275267,21.697451126444044,-0.03202129030557146,1.421935655951524,-0.8416012253326389
2.207647493754675,21.401284988714938,-0.03160269991206207,1.3986942271828184,-0.8113407984805072
2.2010562237189575,21.10995188953229,-0.031171300428108593,1.3759067174138158,-0.7824668856720454
2.1945566583624294,20.82335820393044,-0.030729322015012665,1.3535569549848046,-0.7548995468163843
2.188150810366843,20.541413625480246,-0.030278754133433606,1.331629506445572,-0.7285643224168282
2.1818402972766036,20.264031015716764,-0.02982137053551177,1.310109634159034,-0.7033917983033507
2.175626384456552,19.99112626216522,-0.029358751560212188,1.288983256808046,-0.6793172095353465
2.16951002361849,19.722618144380142,-0.02889230404037935,1.2682369125736488,-0.6562800795431022
2.1634918873895495,19.458428207458624,-0.028423279092391132,1.2478577247741396,-0.6342238910111364
2.1575724003420573,19.198480642531138,-0.027952788026580997,1.227833369773345,-0.6130957853888175
2.151751766857517,18.942702173771668,-0.027481816588087796,1.2081520469835128,-0.5928462882503508
2.1460299961559115,18.691021951504023,-0.027011237712916174,1.1888024508035755,-0.5734290580232051
2.140406924785019,18.443371451013178,-0.026541822962255535,1.1697737443473568,-0.5548006558663924
2.134882236832177,18.199684376699686,-0.026074252779090146,1.1510555348287588,-0.5369203347121007
2.1294554820924527,17.95989657124203,-0.02560912569447584,1.1326378504822328,-0.5197498456897741
2.1241260924019265,17.723945929456157,-0.025146966596249206,1.1145111189070243,-0.5032532603341203
2.1188933963225094,17.491772316563967,-0.024688234160106026,1.0966661467329144,-0.48739680714052813
2.1137566323448693,17.263317490603086,-0.024233327531706626,1.0790941005135484,-0.47214872117547346
2.108714960758493,17.038525028729254,-0.023782592338538067,1.0617864887610453,-0.45747910557781074
2.1037674743222876,16.817340257179882,-0.02333632610151494,1.0447351450424884,-0.4433598039012683
2.0989132078552277,16.599710184683577,-0.022894783108583394,1.027932212065186,-0.42976428235061415
2.0941511468542195,16.385583439114985,-0.022458178805777905,1.011370126683317,-0.4166675210552591
2.0894802352353214,16.174910207208036,-0.022026693755155667,0.9950416057638068,-0.40404591360576414
2.0849025448042577,15.967781206593735,-0.021570357969262804,0.9776155429438345,-0.4182577695331206
2.0804179718085423,15.76429941152622,-0.02113986103755142,0.9603063148420097,-0.4344617192927141
2.0760210783928867,15.564440630849813,-0.020735314349640887,0.9431106439809156,-0.45254418363649623
2.0717064148359405,15.368181348176115,-0.02035671952603774,0.9260253814828561,-0.4723946948257326
2.067468541626636,15.175498695444293,-0.020003977705435667,0.9090475016773409,-0.49390565403969594
2.063302049666811,14.986370427569796,-0.01967689810242121,0.8921740971273957,-0.5169720964838717
2.0592015787478664,14.800774898095462,-0.019375205887527572,0.8754023740567292,-0.541491463273231
2.0551618344387603,14.61869103576247,-0.019098549437291404,0.8587296481622279,-0.5673633791910431
2.0511776035130582,14.440098321921582,-0.01884650699796551,0.8421533407986257,-0.5944894354425281
2.0472437680339786,14.264976768707648,-0.018618592802793314,0.8256709755245447,-0.6227729765354626
2.0433553182083664,14.09330689790242,-0.018414262679228414,0.8092801750014468,-0.6521188904266011
2.039507364113236,13.925069720412132,-0.018232919179157384,0.7929786582393963,-0.6824334010734134
2.0356951463919115,13.760246716287472,-0.018073916262029126,0.7767642381859442,-0.7136238625249997
2.031914046010831,13.598819815213972,-0.0179365635577844,0.760634819656929,-0.7455985536739373
2.0281595931627368,13.440771377400882,-0.017820130233589235,0.744588397610583,-0.7782664727719529
2.024427475397224,13.28608417479602,-0.01772384848558173,0.7286230557690697,-0.8115371307863549
2.020713545055455,13.134741372552845,-0.01764691667411831,0.7127369655944962,-0.8453203426406876
2.0170138260822483,12.986726510674316,-0.017588502118328152,0.6969283856295859,-0.8795260153415743
2.0133245202856953,12.842023485755465,-0.01754774356312807,0.6811956612166153,-0.9140639319436275
2.0096420131120025,12.700616532743464,-0.017523753329187812,0.6655372246119609,-0.9488435302449559
2.0059628790013053,12.562490206629846,-0.01751561915364052,0.6499515955177387,-0.9837736750364463
2.0022838863888826,12.42762936398454,-0.017522405726575152,0.6344373820566184,-1.0187624226478107
1.9986020024154152,12.296019144235387,-0.017543155925496042,0.6189932822210316,-1.0537167764414739
1.9949143974098078,12.167644950589633,-0.017576891746955307,0.6036180858337815,-1.0885424318007437
1.9912184492085785,12.04249243048541,-0.017622614931419638,0.5883106770635809,-1.1231435090403632
1.9875117473770008,11.920547455451356,-0.017679307274083456,0.5730700375464469,-1.157422272534447
1.9837920973990941,11.801796100240889,-0.017745930610740493,0.5578952501722881,-1.1912788342079705
1.9800575249062542,11.686224621094212,-0.017821426463925674,0.5427855036056013,-1.2246108393725268
1.9763062800178623,11.57381943296551,-0.017904715330282626,0.5277400976201373,-1.2573131327043439
1.9725368418717117,11.464567085534707,-0.017994695585436343,0.5127584493399056,-1.28927740196231
1.968747923427605,11.358454237802231,-0.018090241977484343,0.49784010049319627,-1.3203917968263457
1.9649384766341487,11.255467631041164,-0.018190203674481747,0.48298472580267493,-1.350540520003246
1.9611076980567144,11.155594059853282,-0.018293401824893512,0.4681921426533239,-1.379603387500922
1.957255035073905,11.058820341043539,-0.018398626582812824,0.4534623222013723,-1.4074553547177635
1.953380192760834,10.96513327999067,-0.018504633541673025,0.43879540211167634,-1.4339660047398635
1.949483141590297,10.874519634149394,-0.0186101395110628,0.42419170113857746,-1.4589989949978233
1.9455641260977397,10.78696607327123,-0.018713817560911457,0.4096517357963203,-1.4824114582263566
1.941623674673064,10.702459135875639,-0.018814291245522995,0.39517623939978913,-1.5040533535229466
1.9376626106621093,10.620985181440233,-0.018910127906426596,0.380766183794566,-1.5237667632592988
1.9336820649835056,10.542530337707447,-0.01899983093741757,0.3664228041367277,-1.5413851317239218
1.9296834904929911,10.467080442424816,-0.019081830877005858,0.35214762712644154,-1.5567324417569317
1.9256686783578345,10.394620978746477,-0.019154475172106337,0.3379425031434613,-1.569622326411022
1.9216397767394815,10.325137003425159,-0.01921601643125455,0.32380964277384744,-1.579857114026101
1.9175993121239734,10.258613066817627,-0.019264598954536957,0.30975165825026607,-1.587226807314746
1.913550213688431,10.195033123615193,-0.01929824328872478,0.2957716103443479,-1.5915080005190239
1.9094958411499174,10.13438043309936,-0.01931482850664149,0.28187306123501055,-1.5924627439911714
1.90544001661303,10.076637447619653,-0.01931207184466719,0.26806013380979477,-1.58983737350252
1.9013870610187475,10.021785687910725,-0.01928750524373661,0.25433757770379345,-1.5833613334007028
1.8973418359055976,9.969805603832214,-0.019238448214836952,0.24071084209156224,-1.5727460401584588
1.893309791334702,9.920676419164504,-0.019161976269882204,0.22718615474376908,-1.557683858413839
1.8892970210178661,9.874375959283785,-0.019054883890460093,0.21377060602498443,-1.5378472989426377
1.885310325946662,9.830880460958667,-0.018913640597198484,0.20047223516660956,-1.5128886023863373
1.88135728818933,9.790164364291897,-0.018734338044058038,0.18730011404073227,-1.4824399514904982
1.8774463570643816,9.75220008817437,-0.018512625050689534,0.17426442041191736,-1.4461146686572286
1.8735869507183265,9.71695779281971,-0.018243625864120143,0.1613764877277083,-1.403509919281529
1.8697895773994617,9.684405136430119,-0.017921834315544425,0.14864881122076043,-1.354211673625047
1.8660659827087507,9.654507038395927,-0.01754097226265553,0.13609497958106684,-1.2978030036292323
1.8624293322796968,9.627225469416537,-0.01709379372833385,0.12372948688932352,-1.2338772280173995
1.858894444437884,9.602519300425094,-0.016571804765119026,0.1115673606482313,-1.1620579763902303
1.8554780956233137,9.580344257914376,-0.015964850611743017,0.0996235204062208,-1.0820288776758553
1.8521994346462267,9.560653052973997,-0.01526049202717887,0.0879117647402338,-0.9935761173479774
1.84908056320923,9.543395772084473,-0.014443045468029544,0.07644329135047888,-0.8966470884593721
1.8461473743249588,9.528520629968948,-0.013492086763125265,0.06522472879736858,-0.791426757525188
1.8434307953268099,9.51597516572005,-0.01238009417162566,0.054255883096895254,-0.67842826481461
1.8409686748329002,9.505707866661666,-0.011068672437038695,0.04352791745915549,-0.5585829519016002
1.838808731043816,9.49766994836569,-0.009502220792333958,0.03302368535967904,-0.4332956736100709
1.8370134186616978,9.4918164631692,-0.007595992370697026,0.022723792702122568,-0.3044081991481124
1.835669069792186,9.488104656715727,-0.005207330196082601,0.01262674495000937,-0.17400294515799536
1.8349093548725677,9.486482796465221,-0.0020280499907575104,0.0028195431500422433,-0.04401295160354829
