x,y,v_x,v_y,omega
2.375,32.48,0.0,2.2564102564102564,-6.285714285714286
2.3736624876375054,31.966592687759995,-0.011630542282563296,2.208001154372354,-5.93723777175396
2.369823283554352,31.464117279209606,-0.021753841049204352,2.161350224326701,-5.617187697855821
2.363807683288817,30.972182284542857,-0.030555726477186563,2.116345381471107,-5.322489613333828
2.355901151093987,30.49042076638085,-0.03819672739090092,2.072885211241987,-5.050470641816804
2.3463546899961583,30.0184880486289,-0.04481597780761084,2.0308775518184676,-4.798798347883889
2.335389392568763,29.556059723709488,-0.05053443460452052,1.9902383170459639,-4.565430277199887
2.3232003149092817,29.102829908425257,-0.055457545043141585,1.9508905115125874,-4.348572055817244
2.309959788040233,28.658509708552213,-0.05967747120945642,1.9127634004269136,-4.146642404621417
2.2958202590446577,28.222825859910003,-0.06327495483902648,1.8757918051575229,-3.9582437790884715
2.280916737092377,27.79551951964148,-0.06632088822428348,1.8399155015252986,-3.782137614023753
2.2653689059595252,27.376345186155046,-0.06887764336572953,1.8050787027045694,-3.617223359974653
2.2492829538442773,26.965069729933987,-0.07100020111468668,1.771229612261145,-3.4625206584563277
2.2327531626099195,26.561471520417843,-0.0727371139666857,1.7383200357053332,-3.317154128503372
2.215863291573664,26.165339636577713,-0.07413132982684018,1.706305041165367,-3.1803403357809916
2.198687785251449,25.77647315076672,-0.07522089906198827,1.6751426615389207,-3.05137659377739
2.1812928297948404,25.394680477024963,-0.07603958316939008,1.6447936318676561,-2.9296313090963086
2.1637372790076363,25.019778776329925,-0.0766173801976036,1.6152211567848267,-2.814535633069067
2.1460734676449156,24.65159341236595,-0.07698097947822756,1.586390703771487,-2.7055762224614597
2.128347927049314,24.289957452285115,-0.07715415613570008,1.5582698186705535,-2.6022889449923676
2.1106020159681416,23.93471120768207,-0.07715811413536384,1.5308279604863788,-2.5042533922727372
2.0928724775411647,23.58570181163472,-0.07701178522965269,1.504036352968845,-2.411088084830723
2.0751919318888423,23.242782828193587,-0.07673209000793113,1.4778678508670824,-2.3224462720609385
2.057625535787707,22.905823335284637,-0.07601918043672737,1.4522146961672748,-2.2303453592927034
2.0402311937099364,22.574697577436513,-0.0752359680656238,1.4271397199033522,-2.1429540850879523
2.0230239448077807,22.24927524754591,-0.07439228325746802,1.4026196704497045,-2.059970364851565
2.0060166909609944,21.9294312448284,-0.07349688062762913,1.3786325270938589,-1.9811151954247197
1.9892204306780912,21.615045401305007,-0.07255755661500866,1.3551574165878362,-1.906130609457174
1.972644467513256,21.306002226684676,-0.07158125351399314,1.3321745366324405,-1.8347778358032312
1.9562965959209353,21.002190670127423,-0.07057415163662177,1.30966508560455,-1.766835642697168
1.9401832671116832,20.70350389752234,-0.06954175105252595,1.2876111979179403,-1.7020988433706983
1.9243097371617477,20.40983908304682,-0.06848894416430486,1.2659958844778663,-1.640376946282142
1.908680199358359,20.121097213890593,-0.0674200802129879,1.2448029777501697,-1.5814929342944017
1.893297902527047,19.837182907132206,-0.06633902266798528,1.2240170810184237,-1.5252821590168613
1.8781652568817027,19.558004237848486,-0.06524920033501092,1.2036235214487012,-1.4715913381571182
1.8632839287584106,19.283472577620365,-0.06415365291100557,1.1836083066219163,-1.420277645147528
1.848654925436807,19.013502442672497,-0.06305507162467902,1.1639580842291282,-1.3712078815488509
1.8342786711148353,18.74801135095066,-0.06195583552289946,1.1446601046564058,-1.3242577238142157
1.820155074981769,18.48691968750063,-0.060858043895068936,1.1257021862133803,-1.2793110369427012
1.8062835922279716,18.230150577565936,-0.05976354526838602,1.1070726827839714,-1.236259248381365
1.7926632787362504,17.977629766870354,-0.058673963355276706,1.0887604536993607,-1.1950007762631918
1.7792928401171326,17.729285508594895,-0.057590720289225024,1.0707548356524588,-1.155440506709504
1.7661706756775977,17.48504845659849,-0.05651505744586155,1.0530456164901887,-1.1174893154903474
1.7532949178484774,17.24485156446758,-0.05544805411170702,1.0356230107351272,-1.0810636298350467
1.7406634675388628,17.008629990012352,-0.054390644232766294,1.018477636701651,-1.0460850266259727
1.7282740258354985,16.77632100485701,-0.05334363144866339,1.0016004950839146,-1.0124798635988743
1.7161241224205095,16.547863908798412,-0.05230770259471934,0.9849829489039051,-0.9801789405191836
1.7042211516059385,16.323329932028635,-0.05119639144502749,0.9674864143115453,-0.9717003904208219
1.6925699856888565,16.102804297790776,-0.050118094790468845,0.950127796452461,-0.9660614622051534
1.6811629855674506,15.886255781010298,-0.04907321061306081,0.932902784247338,-0.9631091069808875
1.6699924393611072,15.673654126257514,-0.04806197378992605,0.9158072570812112,-0.9626956226723127
1.6590505982966555,15.46497000503209,-0.04708447024878374,0.8988372753137962,-0.9646782738134917
1.648329709469149,15.260174975146896,-0.046140649990403265,0.8819890715139656,-0.9689189290491341
1.6378220457278925,15.059241442049622,-0.04523033906400093,0.8652590423753743,-0.9752837146598888
1.627519932919466,14.862142621929845,-0.04435325057448876,0.8486437412748565,-0.9836426825248634
1.617415774702093,14.668852506467687,-0.04350899479397287,0.8321398714395597,-0.993869491017029
1.607502075129739,14.479345829087453,-0.04269708844388774,0.815744279692898,-1.0058410973985623
1.5977714591897043,14.29359803258614,-0.04191696320858953,0.7994539507533232,-1.0194374603437595
1.5882166914640687,14.111585238012182,-0.041167973536067645,0.7832660020636893,-1.034541251267453
1.5788306930731089,13.933284214674604,-0.04044940377662606,0.7671776791326566,-1.051037573177274
1.5696065570476192,13.758672351166432,-0.03976047470589298,0.7511863513731831,-1.0688136857989385
1.5605375622668967,13.587727627289443,-0.039100349474303,0.7352895084267357,-1.087758735745194
1.551617186089911,13.42042858676934,-0.038468139021223625,0.7194847569654478,-1.1077634905112674
1.5428391157988348,13.256754310651981,-0.03786290698813575,0.7037698179681167,-1.1287200750825914
1.5341972589666044,13.096684391271634,-0.03728367416169268,0.6881425244697021,-1.1505217099342362
1.5256857528534946,12.940198906682006,-0.03672942247404441,0.6726008197879169,-1.1730624491856299
1.517298972931763,12.787278395439412,-0.03619909858449233,0.6571427562346416,-1.19623691764864
1.5090315406322663,12.637903831625131,-0.03569161706330517,0.6417664943243127,-1.219940045471579
1.500878330402521,12.492056599990775,-0.03520586319534884,0.6264703024961759,-1.2440667990358496
1.4928344761619823,12.34971847110588,-0.03474069541803075,0.6112525573724618,-1.2685119067053605
1.484895377237345,12.210871576381326,-0.034294947404901785,0.5961117445801831,-1.2931695779610926
1.477056703858429,12.075498382835,-0.033867429803062635,0.5810464601704828,-1.317933214373865
1.469314402293713,11.943581667457615,-0.03345693162925183,0.5660554126763664,-1.3426951107770666
1.4616646997038463,11.815104491026236,-0.03306222132611238,0.5511374258573527,-1.367346144897633
1.454104108791534,11.690050171200998,-0.032682047476602784,0.5362914421881946,-1.391775453587783
1.4466294323270836,11.568402254726127,-0.03231513917079217,0.5215165271584968,-1.4158700936722652
1.4392377676306818,11.450144488539891,-0.03196020601530971,0.5068118744609462,-1.4395146852868301
1.4319265110952042,11.335260789578697,-0.03161593777145094,0.49217681215813175,-1.4625910354348604
1.4246933628371061,11.22373521303836,-0.03128100360331688,0.4776108099317512,-1.48497773933309
1.4175363315678096,11.115551918829851,-0.0309540509123047,0.4631134875335525,-1.5065497569582875
1.410453739784094,11.01069513593739,-0.030633703728699727,0.448684624574823,-1.5271779620509713
1.4034442293834255,10.909149124353046,-0.030318560624938644,0.434324171810777,-1.5467286606891912
1.396506767819114,10.810898134223546,-0.030007192108206328,0.42003226409791883,-1.5650630764290705
1.389640654920812,10.715926361801248,-0.02969813744224527,0.4058092352264087,-1.5820367989394
1.3828455305184213,10.624217901741826,-0.029389900839411898,0.3916556348555391,-1.5974991930641662
1.3761213830221948,10.535756695235484,-0.029080946953864404,0.37757224780831267,-1.6112927653709868
1.369468559129077,10.450526473396366,-0.028769695594986086,0.36356011601012417,-1.623252485544055
1.3628877748455304,10.368510695265872,-0.02845451556628818,0.3496205633854682,-1.633205060541074
1.3563801280407837,10.289692479710407,-0.02813371751846477,0.33575522405335473,-1.6409681603733437
1.3499471127723761,10.214054530413183,-0.027805545685079015,0.3219660741833898,-1.6463495958544685
1.3435906356590082,10.141579053075315,-0.027468168344207705,0.30825546788502495,-1.6491464509335592
1.337313034615439,10.072247663856704,-0.02711966681726472,0.2946261774942107,-1.6491441756196732
1.331117100312427,10.006041288007907,-0.026758022774143624,0.28108143858227186,-1.6461156504922119
1.3250061007843288,9.942940047579842,-0.0263811035571436,0.26762499992264394,-1.639820241053064
1.3189838096821187,9.882923137063045,-0.0259866451577275,0.2542611784842945,-1.6300028706695562
1.313054538766559,9.825968685825355,-0.025572232368877314,0.24099491923473695,-1.6163931559432267
1.3072231753646046,9.77205360632039,-0.02513527547420564,0.22783185906928846,-1.5987046699453145
1.3014952256865857,9.721153427281031,-0.024672982595524525,0.21477839344689567,-1.5766344296070498
1.2958768651452388,9.673242111569362,-0.02418232645966617,0.20184174317630535,-1.5498627474608693
1.2903749971660987,9.628291859140624,-0.023660003793725532,0.18903001707357195,-1.5180536502015702
1.2849973224887066,9.586272896858258,-0.023102384705337292,0.1763522636426546,-1.480856154407426
1.279752421718875,9.547153258905546,-0.022505448075806622,0.16381850116353716,-1.4379068127934316
1.2746498550454046,9.51089856460344,-0.021864696910892364,0.1514397101591015,-1.3888341145214202
1.2697002848039889,9.47747180500097,-0.02117504431880928,0.13922776464498143,-1.3332655537462033
1.2649156293092738,9.446833156198597,-0.020430655635234538,0.127195268419142,-1.2708384829335697
1.2603092606344177,9.418939846585221,-0.019624724146123266,0.11535524995805181,-1.2012162409780331
1.255896265646908,9.393746117439761,-0.01874914531048313,0.10372065565465116,-1.1241114562533883
1.2516937999004676,9.371203331394195,-0.01779403509334642,0.09230357082853753,-1.0393187563534645
1.2477215798575891,9.351260298929592,-0.01674700875777089,0.08111410277671197,-0.9467590852707043
1.244002583227247,9.333863903042225,-0.01559209237563919,0.07015890493952892,-0.8465368378641838
1.2405640644310076,9.31896009191976,-0.014308071069920596,0.05943945264712804,-0.7390079936594536
1.2374390509389839,9.30649525032642,-0.012865959295504038,0.0489504742514795,-0.62485082267674
1.2346685889098985,9.29641780341532,-0.011225014870456108,0.03867949888852198,-0.5051192992060242
1.2323052287124807,9.288679574351164,-0.00932594336795886,0.028609449495449163,-0.3812445378416983
1.2304188772016715,9.28323575139909,-0.007077113247772903,0.01872814139214452,-0.2549389800499485
1.229108604416371,9.280040617123216,-0.004316563146143489,0.009055634919794792,-0.12796490848258787
1.2285394945084473,9.279026914955573,-0.0006322186618885365,-0.000240833462014544,-0.0018119675542082325
