x,y,v_x,v_y,omega
2.375,32.48,0.0,3.4871794871794872,-3.4693877551020407
2.3737621897331005,31.68959850666118,-0.010763567538258492,3.3858769766363137,-3.1856554409916127
2.3702803375549,30.92188436691091,-0.01951340792435201,3.2898981516269172,-2.937082529314917
2.3649758012607838,30.17568292825491,-0.026612994633181293,3.198810010599152,-2.718105147234501
2.35819447527044,29.44991366767595,-0.03235505745676319,3.112227037913548,-2.524189879486762
2.3502213340360605,28.74358004125876,-0.0369766054508849,3.029804496148985,-2.3516185722696874
2.3412919192892865,28.055760739939835,-0.04067047930367163,2.9512329066242553,-2.197322802485208
2.3316014695482874,27.385602107677677,-0.043594301052844585,2.876233460872784,-2.05875550400176
2.3213122175867316,26.732311529928978,-0.04587745513459501,2.804554171724576,-1.9337906507536826
2.310559254863838,26.095151638964417,-0.04762656854274108,2.7359666192716166,-1.8206443063019302
2.299455268065969,25.4734352119823,-0.048929838395250495,2.6702631805728925,-1.717812073814328
2.288094382784441,24.866520660712524,-0.04986046840064334,2.607254656555607,-1.6240192276839565
2.276555296532746,24.273808029002648,-0.050479412048878514,2.54676822787808,-1.5381807191496901
2.264903843223793,23.6947354289818,-0.05083757324636774,2.4886456853466887,-1.4593689199782296
2.253195100602171,23.128775857694727,-0.05097757998512921,2.4327418910626215,-1.3867874676336323
2.241475128575883,22.575434345234846,-0.05093522024345877,2.3789234346754986,-1.319749949538316
2.2297824081726003,22.034245392859106,-0.05074060935030433,2.327067455548319,-1.2576624464716397
2.2181490366701286,21.504770665697386,-0.05041914284510216,2.277060606727487,-1.200009169827175
2.2066017233624278,20.986596909745593,-0.04999227722185986,2.22879814067941,-1.146340591684247
2.195162621704547,20.47933406706352,-0.04947817197710698,2.182183100034305,-1.096263593072428
2.183850026692218,19.982613566646748,-0.048892219434449255,2.13712559924196,-1.0494332536962172
2.172678960865089,19.49608677143315,-0.04824748341014922,2.0935421852241065,-1.0055459826051212
2.1616616679643297,19.019423564438487,-0.04755506355297392,2.0513552669033785,-0.9643337489554947
2.1508080297861745,18.552311059172318,-0.046824398865769286,2.010492604976329,-0.9255592189492421
2.140125918968218,18.09445242132827,-0.04606352129037424,1.9708868545371425,-0.8890116421438448
2.1296214981819586,17.64556579032393,-0.045279268155358515,1.932475154196268,-0.8545033598036555
2.1192994743718416,17.205383290627086,-0.044477460628266456,1.8951987562110513,-0.8218668314794334
2.109163315190871,16.77365012398128,-0.04366305398887077,1.8590026928829093,-0.7909520948471674
2.0992154335673403,16.350123734663107,-0.04284026447661361,1.8238354751012142,-0.7616245889995956
2.0894573453424865,15.934573040790085,-0.042012676609069245,1.7896488194467963,-0.7337632836326293
2.0798898041021836,15.52677772547053,-0.04118333417617688,1.7563974007232306,-0.7072590665022183
2.070512916653241,15.126527582262302,-0.04035481755375358,1.7240386271744266,-0.6820133496127653
2.061326242039395,14.733621909999222,-0.03952930952317286,1.6925324359827782,-0.6579368612034555
2.0523288765319183,14.347868952564049,-0.038708651411406975,1.6618411069317665,-0.6349485960136118
2.0435195266476467,13.969085379644635,-0.03789439106051966,1.6319290923674685,-0.6129749007619736
2.0348965719288925,13.597095804914137,-0.03708782388516869,1.6027628618107692,-0.5919486754501226
2.0264581189540043,13.231732338433375,-0.0362900280703817,1.5743107597610726,-0.5718086741428153
2.018202047824885,12.872834170390188,-0.03550189479152397,1.5465428753970734,-0.5524988914044024
2.0101260521911652,12.520247183571751,-0.03472415419734262,1.519430923024112,-0.5339680226746261
2.0022276737137825,12.173823592215953,-0.0339573977799016,1.4929481322437055,-0.5161689886245421
1.9945178148289615,11.833422529688516,-0.033084853392453914,1.467061107125312,-0.4956732097243635
1.9870061063606295,11.498908740407181,-0.03223435067999851,1.4417544518428318,-0.47622361960623844
1.9796875019341424,11.17015136713648,-0.03140568781119219,1.417005315728479,-0.4577533220019875
1.9725570091042357,10.847024674737263,-0.030598597666257145,1.3927920094820927,-0.44020050844325087
1.9656097029982076,10.529407791526218,-0.029812759777465943,1.3690939314835275,-0.4235080105680112
1.9588407374120071,10.217184466945064,-0.029047810537320827,1.3458914996569553,-0.4076228970184813
1.952245353729452,9.910242844318166,-0.02830335191968099,1.3231660884030214,-0.39249610998369794
1.9458188879824907,9.608475247583115,-0.02757895892346046,1.3008999701626283,-0.37808213704359994
1.9395567763256896,9.311777980974266,-0.026874185918288145,1.2790762612186757,-0.3643387144946816
1.9334545591598158,9.020051140725418,-0.02618857204583199,1.2576788713800082,-0.35122655879198145
1.9275078841065532,8.733198437935766,-0.025521645808626592,1.2366924572256608,-0.33870912313791307
1.9217125080082058,8.451127031813773,-0.024872928959610168,1.2161023786177458,-0.32675237659351497
1.9160642981020382,8.173747372577616,-0.024241939789674226,1.1958946582183974,-0.3153246033890954
1.9105592324980776,7.9009730533488955,-0.023628195896938504,1.1760559437704612,-0.3043962203749469
1.905193400071299,7.6327206704291015,-0.023031216509834126,1.156573472923401,-0.2939396107838948
1.8999629998636647,7.368909691396279,-0.022450524426113883,1.137435040405474,-0.2839289726802841
1.894864340078205,7.109462330503153,-0.021885647621361505,1.1186289673608514,-0.27434018064832505
1.889893836735827,6.854303430897737,-0.021336120573231827,1.100144072686234,-0.2651506594297201
1.8850480120556505,6.603360353223998,-0.020801485341343552,1.0819696462158475,-0.2563392683589288
1.8803234926111048,6.356562870193262,-0.02028129243731571,1.064095423616639,-0.24788619556667355
1.875717007306616,6.11384306674762,-0.019775101514760692,1.0465115628672006,-0.23977286103038845
1.871225385213342,5.875135245464367,-0.01928248190501289,1.0292086222045496,-0.2319818276460369
1.866845553296863,5.640375836876107,-0.01880301302089055,1.012177539432491,-0.22449671958060477
1.862574534064966,5.40950331440456,-0.018336284647781267,0.995409612494017,-0.21730214723994024
1.8584132228721186,5.182553170662217,-0.017849030072630487,0.9780698983089569,-0.22695127369644313
1.8543609555424407,4.959576480283992,-0.01738807714195949,0.960857844110397,-0.2389264845811795
1.8504116311560093,4.74054431956635,-0.016953874044401306,0.9437696403908398,-0.25310110957528076
1.846559062680606,4.525428623155001,-0.016546721393887548,0.9268016327513172,-0.2693525799356211
1.842797009439196,4.31420214921825,-0.01616678505315597,0.9099503145247657,-0.28756213482639265
1.839119206746334,4.106838446254493,-0.015814107928252972,0.8932123199426962,-0.30761453955593754
1.8355193929411975,3.90331182141232,-0.015488620812065599,0.876584417815326,-0.32939781453124667
1.8319913340277374,3.7035973102082203,-0.015190152348455244,0.8600635056985716,-0.352802973793967
1.8285288461166667,3.5076706475325814,-0.014918438182595526,0.8436466045243773,-0.3777237720451954
1.8251258158495456,3.31550823983979,-0.014673129357588036,0.8273308536738074,-0.40405645910204885
1.821776218972009,3.127087138422656,-0.014453800012295378,0.8111135064751839,-0.43169954075718436
1.8184741372110822,2.9423850136750893,-0.014259954430547936,0.7949919261123424,-0.46055354503320495
1.815213773600517,2.7613801302501244,-0.014091033487408988,0.7789635819308355,-0.4905207928372626
1.8119894663880567,2.5840513230228233,-0.013946420533984854,0.7630260461326636,-0.5215051720271039
1.8087957016494434,2.410377973769485,-0.013825446758307075,0.7471769908528954,-0.5534119138981637
1.8056271247257913,2.2403399884757462,-0.013727396056058381,0.7314141856143844,-0.5861473710918702
1.8024785505935914,2.0739177751867217,-0.01365150944133064,0.7157354951597361,-0.6196187959077788
1.7993449732700602,1.911092222312135,-0.013596989024158962,0.7001388776627661,-0.6537341179760865
1.7962215743507843,1.7518446772985463,-0.013563001578239942,0.6846223833249708,-0.6884017202119878
1.793103730771604,1.5961569255790806,-0.013548681718981602,0.669184153366042,-0.7235302119286056
1.7899870218824074,1.4440111697085385,-0.013553134708815435,0.6538224194212695,-0.7590281979301372
1.7868672359169917,1.2953900085883667,-0.013575438903493458,0.6385355033628463,-0.7948040423405471
1.783740375940356,1.1502764166814714,-0.01361464784986008,0.623321817566693,-0.8307656258446435
1.7806026653527587,1.0086537231113724,-0.013669792042292756,0.6081798656515449,-0.8668200949265892
1.77745055302861,0.8705055905333232,-0.013739880341606827,0.5931082437227817,-0.9028736015845878
1.7742807181678075,0.7358159936568072,-0.013823901056675554,0.5781056421599557,-0.9388310318782801
1.771090074937483,0.6045691972890666,-0.013920822685278833,0.5631708479943054,-0.9745957215258102
1.767875776983404,0.4767497337576714,-0.014029594306711586,0.5483027479308878,-1.0100691566089945
1.7646352218924763,0.3523423795564753,-0.014149145614397576,0.5335003320795043,-1.0451506572659108
1.7613660556910289,0.23133213104333805,-0.014278386572102082,0.5187626984695217,-1.079737042048907
1.758066177467929,0.11370417899917129,-0.014416206672245151,0.5040890584362593,-1.1137222704009972
1.7547337442171622,-0.0005561181638213952,-0.014561473769204449,0.4894787429810708,-1.1469970604536341
1.7513671760014626,-0.11146326278239371,-0.014713032454270407,0.47493121022392987,-1.1794484790732136
1.7479651615470448,-0.2190316481781025,-0.014869701931971043,0.46044605408656575,-1.2109595007825413
1.7445266643896529,-0.32327559105019077,-0.015030273349698382,0.4460230143663939,-1.24140853185844
1.7410509297042003,-0.4242093663668385,-0.015193506523803269,0.4316619883870754,-1.2706688955614376
1.7375374919644897,-0.5218472451420624,-0.01535812599541808,0.4173630444409863,-1.2986082740951137
1.7339861835961436,-0.6162035355391353,-0.015522816338026121,0.4031264372726626,-1.3250881025331709
1.7303971448052813,-0.7072926278029428,-0.01568621662599451,0.3889526258908666,-1.3499629096109669
1.7267708347880475,-0.7951290435950682,-0.0158469139586468,0.3748422940406773,-1.373079599985198
1.723108044552276,-0.8797274903871042,-0.016003435917628785,0.3607963737161491,-1.3942766723666267
1.7194099116129227,-0.961102921661535,-0.016154241815875974,0.3468160721484799,-1.4133833678953398
1.7156779368581048,-1.0392706037764228,-0.016297712573845862,0.33290290276357304,-1.4302187433591431
1.7119140039234275,-1.1142461904706735,-0.016432139032042412,0.31905872066466434,-1.444590664506206
1.7081204014598739,-1.186045806121669,-0.016555708477120068,0.3052857632570163,-1.4562947159987805
1.7042998487361611,-1.2546861390151918,-0.016666489120382186,0.29158669668664083,-1.4651130268286974
1.7004555250820363,-1.320184546046569,-0.016762412219833572,0.277964668803595,-1.470813013758116
1.6965911037569787,-1.3825591704360818,-0.016841251476320013,0.2644233693660921,-1.4731460512841206
1.692710790922911,-1.4418290742001858,-0.01690059925470205,0.2509670981478572,-1.471846085820865
1.6888193705152448,-1.498014387254564,-0.01693783907283111,0.237600841455428,-1.4666282258252883
1.684922255952281,-1.551136475104272,-0.016950113648595284,0.22433035723767286,-1.4571873607944097
1.681025549811855,-1.601218127049421,-0.01693428757249924,0.21116226837234825,-1.4431968938839344
1.6771361128572835,-1.6482837666207288,-0.01688690333681692,0.19810416268250733,-1.4243077204372219
1.6732616441466552,-1.6923596854291603,-0.01680412892951692,0.1851646965212155,-1.40014765547739
1.669410774467341,-1.7334743005680764,-0.016681694368869234,0.1723536959911207,-1.3703216181762248
1.6655931760964582,-1.7716584338370822,-0.016514813204024544,0.1596822454785031,-1.3344130362882605
1.6618196930580074,-1.80694560790036,-0.016298082782502863,0.1471627463760923,-1.291987160750792
1.6581024978989933,-1.8393723493665064,-0.016025353382837036,0.1348089185468995,-1.242597309881319
1.654455283997899,-1.868978480716514,-0.015689550104939123,0.12263570188795654,-1.1857955301200638
1.650893507323092,-1.8958073707430643,-0.015282420980339212,0.11065899399507638,-1.1211498008292324
1.6474346996756104,-1.9199060952593285,-0.014794167258632815,0.09889513223333647,-1.048270731401007
1.6440988889388521,-1.941325435263991,-0.014212882626220554,0.08735999824196958,-0.9668516104150484
1.6409091842474604,-1.9601196095602518,-0.013523679907621487,0.07606760433419853,-0.8767263228386359
1.6378926209827807,-1.9763456101446764,-0.012707305002637143,0.06502805292168967,-0.7779491238826868
1.6350814214977758,-1.990062003056856,-0.011737907910449909,0.054244928923375915,-0.6708965006855614
1.6325149300086035,-2.0013271255073164,-0.010579409386700277,0.04371265760239562,-0.5563807253977912
1.6302426682182096,-2.0101968521931113,-0.009179388790637075,0.033415400534961046,-0.4357429099765523
1.6283293874618208,-2.0167226966386735,-0.007457835177961225,0.023331072904715,-0.3108609438359092
1.6268643650725263,-2.020952354895023,-0.005281489946338666,0.013448564106997907,-0.1839808790782864
1.6259838523463497,-2.0229391381070982,-0.0023751424551981515,0.0038278116501718317,-0.0572962501894434
