x,y,v_x,v_y,omega
2.375,32.48,0.0,3.7435897435897436,-5.795918367346939
2.3733439435792048,31.741550023622963,-0.01656056420795464,3.6409100201805984,-5.351923375672319
2.368665069830149,31.023124467428456,-0.030228173282603747,3.543345541764463,-4.959419770313304
2.3614931683790017,30.323740734324446,-0.041490841228867065,3.45049178927563,-4.610748567690421
2.352269343519859,29.64249265877374,-0.050747407362560726,3.3619889662314555,-4.2995908632639015
2.341362058399413,28.97854222571969,-0.05832544384189732,3.2775153643090364,-4.020701690339952
2.3290799929408683,28.331112489643647,-0.06449521074355069,3.196781996451381,-3.7697027841542123
2.315682410279277,27.699481469864438,-0.06948061587235983,3.1195282013407026,-3.5429198797853316
2.301387560436063,27.08297684939042,-0.07346788255978257,3.0455180033994753,-3.3372540089158447
2.2863795273384766,26.480971342197048,-0.07661244841608153,2.9745370685342714,-3.150078982917019
2.2708138336878916,25.892878621786704,-0.07904448808976801,2.906390135569175,-2.9791592080940803
2.2548220490538116,25.318149725039817,-0.08087335825103217,2.840898831899669,-2.822583404906339
2.2385155939304715,24.756269861574204,-0.08219119298236889,2.7778998027564965,-2.6787108527616827
2.221988892081223,24.20675557140872,-0.08307582551011462,2.717243098898341,-2.546127562548885
2.2053219922432,23.66915218360746,-0.08359317287011324,2.6587907791142715,-2.423610364744231
2.1885827559327873,23.143031536427173,-0.0837991902340182,2.6024156926885778,-2.3100973440398236
2.171828689031628,22.627989925786956,-0.08374147877757415,2.5480004137135643,-2.2046633892701957
2.1551084798161146,22.12364625397946,-0.08346061337755686,2.4954363043614065,-2.10649988681097
2.1384632941996258,21.6296403547109,-0.08299124278733305,2.444622688324187,-2.014897786118101
2.1219278694899013,21.145631473990818,-0.08236300430991288,2.395466118876641,-1.9292334220045335
2.1055314403934893,20.671296889242164,-0.08160128665420546,2.3478797286099016,-1.8489566002249853
2.08929852491858,20.20633065138364,-0.08072786809488733,2.3017826499753173,-1.7735805488760965
2.0732495929231947,19.750442436638487,-0.07976145185896964,2.2570994974762093,-1.7026734139676873
2.0574016360843856,19.303356496517267,-0.07871811652911766,2.21375990373598,-1.6358510377825244
2.0417686548361758,18.864810695861962,-0.0776116959529807,2.171698102817072,-1.572770806743825
2.026362075190788,18.434555630068665,-0.0764541005008959,2.1308525551159296,-1.5131263940766269
2.0111911062023444,18.01235381366184,-0.07525558938354043,2.0911656089523256,-1.4566432536029796
1.9962630470620484,17.59797893330291,-0.07402500201942058,2.0525831946369366,-1.4030747461172992
1.9815835513555056,17.191215159102992,-0.07276995504600821,2.0150545473622623,-1.352198800165681
1.9671568548076623,16.791856508793014,-0.0714970104324252,1.9785319557375058,-1.3038150256544634
1.9529859718419873,16.39970625989999,-0.07021181922432324,1.9429705331927256,-1.2577422122874746
1.9390728654503258,16.014576405598376,-0.0689192446922926,1.9083280098234028,-1.213816155968998
1.9254185941779507,15.63628715036171,-0.06762346803145852,1.8745645425432431,-1.1718877654786208
1.9120234394501896,15.264666441940541,-0.06632807924615336,1.8416425416684516,-1.1318214092972705
1.8988870159826614,14.899549536545958,-0.06503615542912694,1.8095265122773638,-1.0934934687383235
1.886008367610431,14.540778594430169,-0.0637503282931788,1.7781829088805223,-1.056791068752192
1.8733860505290036,14.188202303331867,-0.06247284252109352,1.747580002102484,-1.0216109621190896
1.8610182056512325,13.841675527499469,-0.0612056062566186,1.717687756221497,-0.9878585463776792
1.848902621539944,13.501058980223341,-0.05995023485626596,1.6884777165397824,-0.9554469958824668
1.8370367891691277,13.166218918002556,-0.05870808885189772,1.659922905668078,-0.9242964939421279
1.8254179495907747,12.837026854645199,-0.057480306931631475,1.6319977279054996,-0.8943335521475544
1.8140431354349231,12.513359293756494,-0.05626783462688393,1.604677880981534,-0.8654904058202837
1.8029092070429824,12.19509747820808,-0.05507144929252189,1.577940274502606,-0.8377044760548702
1.792012883925535,11.882127155306566,-0.05389178188195409,1.5517629545125242,-0.8109178901385441
1.7813507721426416,11.57433835649178,-0.05272933594697906,1.5261250336353371,-0.7850770532459912
1.7709193881248275,11.271625190496078,-0.051584504231160636,1.501006626321673,-0.7601322652575657
1.7607151793843454,10.973885648987274,-0.05045758317366114,1.4763887887663627,-0.7360373773616542
1.7507452193036417,10.681023047130225,-0.049242017633375185,1.4522372298041257,-0.709775975608937
1.7410154174262584,10.392944124890146,-0.0480560011404577,1.428551992596648,-0.6847022427205958
1.731519912123278,10.109557269215756,-0.046899051889347634,1.4053165641472554,-0.6607485023041858
1.7222529420584878,9.83077409491371,-0.04577064875855417,1.382515178873213,-0.6378516657201202
1.7132088532519,9.556509299419051,-0.04467023930732298,1.360132776073362,-0.6159528716198573
1.7043821046533867,9.286680525784345,-0.04359724667781133,1.3381549602737073,-0.5949971575849292
1.6957672724311443,9.021208233334491,-0.042551075544613265,1.3165679642248123,-0.574933160678413
1.6873590531532023,8.760015575477503,-0.04153111723480727,1.2953586143450595,-0.555712844069177
1.6791522660171636,8.503028284200795,-0.04053675412558099,1.274514298422024,-0.5372912471963843
1.6711418542633498,8.250174560818536,-0.0395673634125573,1.2540229354005823,-0.5196262572126763
1.6633228858891047,8.00138497256836,-0.0386223203298915,1.2338729471011678,-0.5026783996837929
1.655690553766839,7.7565923546857505,-0.03770100089276773,1.2140532317249295,-0.4864106467341116
1.6482401752551752,7.515731717611793,-0.036802784223868186,1.194553139014637,-0.4707882410151356
1.6409671913810358,7.278740159015218,-0.03592705451752874,1.1753624469511041,-0.4557785340403289
1.633867165660436,7.045556780332625,-0.035073202688466115,1.1564713398748234,-0.44135083757746174
1.6269357826169872,6.816122607551993,-0.03424062774602231,1.1378703879315049,-0.4274762869210472
1.6201688460494146,6.590380515984002,-0.03342873792970279,1.1195505277483877,-0.4141277149844734
1.6135622770927163,6.3682751587836,-0.03263695163728085,1.1015030442556333,-0.40127953625577195
1.607112112111707,6.149752899000649,-0.03186469817281398,1.083719553573881,-0.3889076397540996
1.6008145004605763,5.9347617449537395,-0.031111418338491254,1.0661919868952272,-0.37698929020724725
1.5946657021376034,5.723251288735167,-0.03037656489123875,1.0489125752905106,-0.36550303674496704
1.58866208536024,5.51517264766802,-0.029659602882395164,1.031873835380947,-0.3544286284696221
1.5828001240823522,5.310478408548242,-0.02896000989648334,1.015068555816844,-0.3437469363254898
1.5770763954723934,5.1091225745155135,-0.028277276203102903,0.9984897845104456,-0.3334398807417593
1.5714934500409838,4.9112314459921045,-0.02755217811099374,0.9804215007236352,-0.35766004174876437
1.566051253555537,4.7169427011933145,-0.026869786743474074,0.9624659472642709,-0.38359895679056044
1.5607413579957508,4.5262340995092245,-0.02622916885438916,0.9446200695766126,-0.4111459756939041
1.5555555072925413,4.339083999320259,-0.025629338177705737,0.9268809323130488,-0.44019305909112966
1.5504856473475743,4.1554713346035825,-0.02506926127196467,0.9092457148537206,-0.4706345362475098
1.5455239349361505,3.9753755923955367,-0.02454786284227404,0.8917117072267423,-0.5023668688007601
1.5406627455942425,3.7987767910312087,-0.024064030576802706,0.8742763064165385,-0.535288419433394
1.5358946805834295,3.6256554590845163,-0.02361661953132796,0.8569370130504018,-0.5692992245106726
1.5312125730210797,3.45599261493388,-0.02320445609217034,0.8396914284559649,-0.604300769721838
1.526609493257384,3.2897697468797915,-0.022826341544788,0.8225372520849186,-0.640195767760057
1.5220787535756675,3.1269687937411987,-0.02248105527237678,0.8054722793010105,-0.6768879370668437
1.5176139122878292,2.9675721258577816,-0.02216735760600578,0.7884943995331762,-0.7142817806493998
1.5132087772927199,2.8115625264247015,-0.02188399234508676,0.7716015947976144,-0.7522823639539634
1.5088574091617808,2.6589231730853626,-0.021629688964304408,0.7547919385957659,-0.7907950907444302
1.5045541238133004,2.5096376197059307,-0.02140316452049789,0.7380635951985434,-0.8297254758926876
1.500293494834215,2.3636897782529935,-0.02120312527035607,0.7214148193308285,-0.8689789139346334
1.4960703555064652,2.2210639006924815,-0.021028268007142015,0.7048439562742776,-0.9084604421830116
1.4918798005935543,2.0817445608239638,-0.020877281121967888,0.6883494424109132,-0.9480744971141495
1.4877171879421207,1.945716635959382,-0.02074884539236846,0.6719298062349142,-0.987724662659485
1.4835781399530803,1.8129652883493357,-0.020641634498036937,0.6555836698655353,-1.0273134089333829
1.479458544977221,1.6834759462527522,-0.020554315260554516,0.6393097511002916,-1.0667418198150318
1.4753545586910932,1.557234284537266,-0.020485547600725594,0.6231068660545585,-1.1059093076729696
1.4712626055106526,1.43422620468764,-0.02043398420368023,0.606973932441692,-1.1447133133747474
1.467179380102467,1.314437814087789,-0.020398269878175772,0.5909099735568332,-1.183048989560154
1.4631018490554029,1.1978554044283172,-0.0203770405924668,0.5749141230378957,-1.2208088649730786
1.4590272527796904,1.084465429075621,-0.02036892216465577,0.558985630489064,-1.2578824874434873
1.4549531077051732,0.9742544792201464,-0.020372528580517843,0.5431238680656789,-1.2941560428864225
1.4508772088564879,0.8672092586000844,-0.020386459906335086,0.5273283381349297,-1.3295119474393187
1.4467976328900354,0.763316556572132,-0.0204092997581893,0.5115986821446029,-1.363828409593036
1.4427127416859817,0.662563219272414,-0.020439612282348356,0.49593469085258973,-1.3969789588880737
1.4386211865983745,0.5649361185778261,-0.020475938593721696,0.48033631609328814,-1.4288319374497445
1.4345219134779303,0.47042211854011384,-0.020516792610720806,0.46480368428381585,-1.4592499503321557
1.4304141685953502,0.3790080389213841,-0.020560656215080086,0.44933711190346665,-1.4880892703427089
1.4262975056084342,0.2906806154095989,-0.020605973654080886,0.4339371232144205,-1.5151991927453003
1.422171793734032,0.20542645603509158,-0.02065114508994257,0.41860447053062033,-1.5404213350199927
1.4180372273063768,0.12323199324352885,-0.020694519186606645,0.4033401573850244,-1.5635888767322488
1.4138943369269794,0.044083431005738305,-0.020734384607367304,0.388145464992904,-1.5845257345987913
1.4097440024385133,-0.03203331373952523,-0.020768960277295523,0.37302198245969914,-1.6030456681220915
1.4055874679866354,-0.10513267610895127,-0.020796384241482602,0.3579716412345376,-1.618951311836109
1.401426359470204,-0.17522951566859035,-0.020814700922828736,0.3429967543618225,-1.6320331314583383
1.3972627047229194,-0.24233919721758213,-0.020821846550020357,0.3281000611280691,-1.6420683033625487
1.3930989568193795,-0.3064776811034662,-0.020815632485379074,0.3132847777307733,-1.6488195201871703
1.38893802095782,-0.36766162433620053,-0.020793726130215434,0.29855465459656955,-1.6520337306784698
1.3847832854430808,-0.4259084938883788,-0.020753629017177692,0.2839140409252145,-1.6514408299120549
1.380638657380671,-0.4812366936708443,-0.020692651606920406,0.2693679568994715,-1.646752328117683
1.376508603802228,-0.5336657067333235,-0.020607884177509143,0.2549221737252996,-1.6376600443122076
1.3723981990836065,-0.5832162542228261,-0.020496163008704726,0.24058330116969576,-1.6238348975375765
1.368313179704144,-0.6299104724817823,-0.020354030785921396,0.22635888141985652,-1.6049259076574387
1.364260007653078,-0.6737721092945463,-0.020177689724738265,0.212257486707802,-1.5805595751244912
1.3602459441551509,-0.714826739560003,-0.0199629452545321,0.1982888159467486,-1.5503398931642065
1.3562791359250446,-0.7531019993741452,-0.019705137046531804,0.18446378219465157,-1.51384936821081
1.3523687169730534,-0.7886278353439877,-0.01939905247338036,0.17079457750375035,-1.470651601589431
1.348524930243581,-0.821436762476587,-0.01903881482134135,0.15729469382225045,-1.4202962393285306
1.3447592753573359,-0.8515641185652996,-0.018617734041110282,0.14397886706490948,-1.3623274548330635
1.3410846919168762,-0.8790482947910974,-0.018128100363485788,0.13086289519306968,-1.2962976193128295
1.3375157929961383,-0.9039309102690041,-0.017560888843893133,0.11796325958596526,-1.2217884527606633
1.3340691718275666,-0.9262568815896302,-0.01690532284182468,0.10529645362029096,-1.1384426989830936
1.3307638183498518,-0.9460743169803436,-0.016148211935322766,0.09287790028687114,-1.0460100591274364
1.3276217043853416,-0.963434141220219,-0.015272927709779638,0.08072034211191062,-0.9444112570461076
1.3246686318212582,-0.9783893413383637,-0.01425779793105369,0.06883165906951744,-0.8338225592817716
1.3219354956738574,-0.990993738169081,-0.013073563542954868,0.0572123092376802,-0.7147776290216985
1.3194602103823432,-1.0013002846849162,-0.01167928937218784,0.045853155920707024,-0.5882709514125026
1.3172907313069036,-1.009359157942086,-0.010015501382207446,0.03473557665099251,-0.45582470507609396
1.3154900541252976,-1.0152165007611345,-0.00799127043385269,0.023837851539489984,-0.31945322311982205
1.3141456170480226,-1.0189159983977376,-0.005453100338898779,0.013157124826507325,-0.1814449772629058
1.3133935633725222,-1.0205104303422843,-0.0020674364161050026,0.0027871946189695247,-0.0439183535180101
