x,y,v_x,v_y,omega
2.375,32.48,0.0,3.1794871794871797,-5.3061224489795915
2.3738635651514217,31.882922976663565,-0.011962472090299492,3.105534118791052,-4.972199703988848
2.370619725610711,31.29961315815887,-0.022183207285597854,3.03456923388994,-4.669673094136514
2.365576343554361,30.729521458474085,-0.030905024886513963,2.966396025949912,-4.3947049375006015
2.3589986415452944,30.172134396095547,-0.03833394362997538,2.9008362096136286,-4.1440139691960525
2.3511156088910985,29.62697085084507,-0.04464534746682295,2.8377274246019217,-3.914783146755183
2.342125345139004,29.093579220099887,-0.049989007818383585,2.7769213200842393,-3.7045845953342442
2.332199535688147,28.571534910643372,-0.05449319692747779,2.7182819373527303,-3.511318155592717
2.3214872149768593,28.06043811490143,-0.05826807371765632,2.6616843336150837,-3.333160801569519
2.310117942024281,27.55991182996762,-0.061408483677906404,2.607013402530273,-3.168524799916683
2.2982044890905406,27.069600085340262,-0.0639962840456743,2.5541628567050974,-3.016022939826583
2.28584512527737,26.589166351213706,-0.06610228240875286,2.503034344627081,-2.874439513326278
2.273125561846741,26.118292103869123,-0.06778785896628764,2.453536680052752,-2.742705995805021
2.260120614011834,25.656675528480434,-0.06910632876957543,2.4055851661439602,-2.619880586591464
2.2468956242906515,25.204030342699685,-0.07010408934813393,2.3591009999691708,-2.505130933669572
2.2335076847040938,24.7600847268711,-0.07082159051037006,2.314010745594878,-2.397719495980591
2.2200066887603906,24.324580348764293,-0.07129415626545452,2.270245866055745,-2.2969910992309868
2.206436238997082,23.89727147240592,-0.07155268334831837,2.2277423061376274,-2.2023623227524713
2.192834431616909,23.47792414199599,-0.07162423644297779,2.186440119230031,-2.113312420319128
2.1792345362720154,23.066315433074507,-0.07153255666116748,2.146283132575059,-2.02937553041554
2.1656655861773695,22.66223276409918,-0.07129849696668362,2.1072186461126043,-1.950133973958183
2.15215289135468,22.265473262438896,-0.07094039590373243,2.0691971608377724,-1.8752124719814858
2.1387184858309523,21.87584317950739,-0.07047439908287319,2.0321721331780522,-1.804273143930232
2.1253815179679854,21.493157350378493,-0.06991473631677655,1.996099752389317,-1.7370111702199416
2.112158591721596,21.11723869375536,-0.06927396101363849,1.9609387383805124,-1.6731510216347447
2.0990640654745736,20.747917748625614,-0.06856315737607223,1.926650157722078,-1.6124431737176361
2.086110314116655,20.385032244332972,-0.06779212007570008,1.893197255884677,-1.5546612371981536
2.0733079592266965,20.028426701143715,-0.06696951034491683,1.8605453040022397,-1.4995994461981246
2.06066607152099,19.677952058690394,-0.06610299182041574,1.8286614586642818,-1.4470704548584112
2.048192349146253,19.333465329942094,-0.06519934896628975,1.7975146334230958,-1.3969034004614018
2.0358932748988345,18.994829278585513,-0.06426459048021826,1.7670753808567252,-1.3489421973460876
2.0237742550288544,18.66191211790867,-0.06330403973010118,1.7373157841626745,-1.3030440311363314
2.0118397419274556,18.33458722946274,-0.06232241396883034,1.7082093573734256,-1.2590780272002875
2.0000933426873133,18.01273289994062,-0.061323893822144426,1.6797309533857494,-1.2169240709702192
1.9885379152627776,17.696232074856013,-0.06031218433086372,1.6518566790838072,-1.1764717608920683
1.9771756537298044,17.38497212773631,-0.05929056864780174,1.6245638169130083,-1.1376194774374118
1.9660081639513445,17.078844643658314,-0.05826195533598563,1.5978307523291049,-1.1002735538746322
1.9550365307864372,16.77774521605944,-0.05722892008408976,1.571636906606389,-1.0643475364254202
1.9442613778368116,16.481573255850417,-0.05619374254355017,1.5459626745412243,-1.0297615230803099
1.9336829205999924,16.190231811938826,-0.05515843889665163,1.5207893666334271,-0.9964415717569924
1.923301013789884,15.903627402348594,-0.05412479068343661,1.4960991553690361,-0.9643191696944277
1.9131237548331297,15.621671973476804,-0.05300425096660918,1.4718527274919042,-0.9306990599348688
1.9031578318661526,15.34428050679325,-0.051900201317360076,1.44805744812445,-0.8985597297560389
1.8934000574042011,15.071368767545,-0.05081321407160145,1.4246977018571518,-0.8678188586928004
1.8838471469764628,14.80285542245867,-0.049743737799328426,1.4017585622094904,-0.8383995686258507
1.8744957412072938,14.538661912487129,-0.048692112402452185,1.379225753280401,-0.8102300066217036
1.8653424251932025,14.278712332600985,-0.047658582482717614,1.3570856139421417,-0.7832429640218841
1.856383745485062,14.022933318160288,-0.04664330918191984,1.3353250643809862,-0.7573755282669614
1.8476162249489474,13.77125393743757,-0.045646380671918035,1.3139315748055092,-0.7325687643164217
1.839036375747326,13.523605589895958,-0.04466782145041224,1.2928931361588516,-0.708767422857028
1.8306407106544684,13.279921909855748,-0.043707600579667494,1.2721982326854457,-0.6859196727857414
1.8224257528954482,13.040138675210166,-0.042765638988967423,1.2518358162154053,-0.663976855713248
1.8143880446765084,12.80419372087578,-0.041841815947239444,1.2317952820412903,-0.6428932604647797
1.8065241545555453,12.572026856685984,-0.040935974799741884,1.2120664462723747,-0.6226259157598122
1.7988306837846577,12.343579789456815,-0.040047928051705255,1.1926395245609867,-0.6031343994344842
1.7913042717418892,12.118796048973635,-0.039177461872172435,1.1735051121040638,-0.5843806627329059
1.783941600556166,11.89762091766482,-0.03832434008281144,1.15465416483085,-0.5663288683382814
1.776739399017841,11.68000136374489,-0.037488307689028694,1.1360779816947462,-0.5489452409440123
1.769694445856988,11.465885977624481,-0.03666909400415985,1.1177681879937784,-0.5321979292804723
1.762803572462477,11.255224911398319,-0.03586641541174584,1.0997167196500246,-0.5160568786165355
1.7560636651068087,11.047969821235114,-0.03507997780581671,1.0819158083837104,-0.500493712847567
1.7494716667345172,10.844073812505016,-0.03430947874461901,1.0643579677225865,-0.4854816253646669
1.7430245783655987,10.64349138749116,-0.03355460934926059,1.0470359797916802,-0.47099527797456114
1.7367194601597706,10.446178395541853,-0.032815055975245304,1.0299428828326185,-0.4570107072065905
1.730553432182354,10.252091985529233,-0.0320905016817728,1.01307195940548,-0.4435052374035843
1.7245236749080965,10.061190560488903,-0.03138062752093711,0.9964167252295739,-0.4304574000477594
1.7186334205301523,9.873635759439821,-0.030622050141632072,0.9778443384449709,-0.4602469969401345
1.7128829406234316,9.689599344856749,-0.029909317297534852,0.959381078218936,-0.49152897265820833
1.707263647360322,9.509060853290812,-0.02924113810361879,0.9410240961593428,-0.5241945435240121
1.7017672011460259,9.332000351822686,-0.028616190467919803,0.9227706561367203,-0.558137006185216
1.6963855161464578,9.1583984170719,-0.028033125317006555,0.9046181307136542,-0.5932514988819121
1.6911107650530806,8.98823611484773,-0.027490570402752806,0.886563997961826,-0.6294347663521925
1.6859353831616037,8.821494980368591,-0.026987133718055438,0.8686058386607024,-0.6665849273716478
1.6808520718364992,8.65815699897773,-0.026521406546203302,0.8507413338746621,-0.704601243916428
1.6758538014288609,8.498204587283357,-0.02609196616577897,0.8329682629082129,-0.7433838909262092
1.6709338137112386,8.341620574651092,-0.025697378230243737,0.815284501641953,-0.7828337256219633
1.66608562388969,8.18838818497587,-0.02533619883869096,0.7976880212551016,-0.8228520553034561
1.6613030222504095,8.038491018658974,-0.025006976311629386,0.7801768873438187,-0.8633404025123947
1.6565800754959148,7.891913034713731,-0.02470825268305064,0.7627492594481946,-0.9042002663985372
1.6519111278238705,7.7486385329206975,-0.02443856491741721,0.7454033910047883,-0.945332879067172
1.6472908018002486,7.608652135949374,-0.02419644585755069,0.7281376297459791,-0.9866389556163903
1.642713999077647,7.471938771359142,-0.02398042490667539,0.7109504185722604,-1.0280184364906242
1.6381759010092334,7.338483653386522,-0.02378902844504726,0.6938402969290189,-1.0693702206820157
1.6336719692089834,7.2082722644193495,-0.023620779978638144,0.6768059027254214,-1.1105918882022405
1.6291979461096624,7.081290336050646,-0.023474200014212722,0.6598459748398727,-1.1515794101232695
1.6247498555713924,6.957523829595754,-0.023347805651788383,0.6429593562642546,-1.1922268443450041
1.6203240035956956,6.836958915945594,-0.023240109881861058,0.626144997947951,-1.2324260150895314
1.615916979202687,6.719581954616334,-0.023149620570861017,0.6094019634126834,-1.2720661739447419
1.6115256555326238,6.605379471841172,-0.023074839114014912,0.5927294342206184,-1.3110336400831997
1.607147191237436,6.494338137533038,-0.023014258730069206,0.5761267163912941,-1.3492114170647034
1.6027790322332045,6.386444740927466,-0.022966362367102863,0.559593247877892,-1.3864787833926828
1.59841891389096,6.2816861646921645,-0.02292962018284103,0.5431286072305518,-1.4227108537359892
1.5940648637507335,6.180049357263822,-0.022902486556382017,0.52673252359409,-1.4577781074505476
1.5897152048526864,6.081521303142434,-0.022883396580958178,0.5104048882100016,-1.491545880743402
1.5853685597894769,5.986088990838741,-0.022870761979141244,0.49414576761834367,-1.5238738185213314
1.581023855596059,5.89373937813048,-0.02286296637262569,0.4779554187843977,-1.5546152816679355
1.5766803296069805,5.804459354237181,-0.02285835982820296,0.4618343064082353,-1.5836167052132906
1.572337536427293,5.718235698470689,-0.022855252589560032,0.4457831227127287,-1.610716902623902
1.5679953561816558,5.635055034858485,-0.022851907890831347,0.42980281004730453,-1.6357463112850583
1.5636540042274807,5.554903782168374,-0.02284653373206335,0.4138945866907023,-1.6585261742278885
1.5593140425424803,5.477768098685626,-0.022837273478469925,0.3980599762855876,-1.6788676533501643
1.5549763930252494,5.403633821006466,-0.02282219512395988,0.38230084138979153,-1.6965708699107582
1.5506423529802376,5.332486396014769,-0.022799279034059493,0.3666194216807051,-1.7114238691135004
1.5463136130964843,5.264310805102422,-0.022766403952816112,0.35101837739662684,-1.7232015073846594
1.5419922782739954,5.199091479579472,-0.0227213310207505,0.33550083863442176,-1.7316642638483433
1.537680891704173,5.136812206101375,-0.022661685503694743,0.3200704611350251,-1.7365569820360947
1.5333824626735595,5.07745602082348,-0.02258493587118731,0.30473148915860104,-1.7376075547855179
1.5291004986365668,5.0210050908881065,-0.022488369781365623,0.2894888259505782,-1.734525575683769
1.524839042197775,4.96744058177487,-0.02236906641644257,0.2743481120834768,-1.7270009958876187
1.5206027137652833,4.916742509028879,-0.02222386445189067,0.25931581155854966,-1.7147028480177589
1.5163967607953017,4.868889572969039,-0.022049324705812088,0.24439930486082756,-1.6972781324449453
1.512227114763281,4.823858975240114,-0.021841686157561723,0.2296069870226073,-1.6743510105357398
1.5081004572984367,4.781626216614946,-0.021596813472379617,0.21494836692653596,-1.6455225213382567
1.5040242973551419,4.742164876440974,-0.0213101332991446,0.20043416122054744,-1.6103711428060137
1.500007061945953,4.7054463758022536,-0.020976555218635385,0.1860763718185978,-1.5684546700734827
1.496058203957662,4.671439729193974,-0.020590370973900977,0.17188832932118667,-1.5193141006812148
1.4921883321292397,4.640111293793979,-0.020145121956859666,0.15788467488928892,-1.462480524623573
1.4884093707438135,4.611424531966502,-0.01963341894236206,0.1440812390841577,-1.397486443737714
1.4847347605590069,4.585339812331142,-0.019046688266129316,0.1304947570775392,-1.3238835133294882
1.4811797189211493,4.561814288513009,-0.01837480265868624,0.1171423357449142,-1.241269402926816
1.4777615874078291,4.540801913099344,-0.01760552906047442,0.10404056334628602,-1.1493272185484718
1.4745003121388995,4.522253666330034,-0.0167236842966805,0.09120413948853669,-1.047881405502546
1.47141912886566,4.50611809936732,-0.015709823842682286,0.0786439338031796,-0.9369734851501612
1.4685455680996693,4.492342295798473,-0.014538184220376827,0.06636452481627499,-0.8169577520341668
1.4659129656533227,4.480873308989228,-0.013173420478008487,0.05436165212313359,-0.6886083904338385
1.4635627866750065,4.471659973274704,-0.011565305609529838,0.04262082908236348,-0.5532120934357616
1.4615483308110924,4.464654605880259,-0.009639492957989923,0.031119880332846947,-0.4125941409034863
1.459941127037752,4.459813304977022,-0.0072784414982242545,0.01984118180649619,-0.26900192070186923
1.4588443258126684,4.4570914259088035,-0.004266834555285241,0.008810176806313318,-0.1247732593234856
