x,y,v_x,v_y,omega
2.375,32.48,0.0,2.5128205128205128,-5.795918367346939
2.3739542088895877,31.98263461755227,-0.010457911104122322,2.460833311656749,-5.484979106439544
2.3709484522534514,31.495487720690253,-0.019599655257242478,2.410635656963432,-5.198533998585655
2.366230273934785,31.0182119666496,-0.027582127929422592,2.362121883443101,-4.934031753201212
2.3600178886011394,30.550480235251378,-0.03454172540703136,2.3151954305391285,-4.689240435161899
2.3525039810694723,30.091983916971195,-0.040597349909640756,2.2697677522626964,-4.462201190096956
2.3438589543073585,29.642431402146613,-0.045852917711496716,2.225757395983113,-4.251189601020726
2.3342337162229487,29.201546740684797,-0.05039946313259915,2.18308921863505,-4.054683258349414
2.3237620787387483,28.769068447269852,-0.05431691170940799,2.1416937155144016,-3.8713344197837123
2.3125628294772933,28.34474843152086,-0.05767558090514177,2.101506441975518,-3.699946863232744
2.3007415258691255,27.92835103609264,-0.06053745517653675,2.0624675123066836,-3.5394562120099655
2.2883920530295487,27.519652168548017,-0.0629572732192267,2.0245211631395494,-3.3889131493597664
2.275597979893112,27.11843851511845,-0.06498345814514395,1.9876153711561284,-3.2474690480808346
2.2624337425039696,26.72450682632756,-0.06665891574628138,1.9517015167527691,-3.114363627346818
2.2489656787761563,26.33766326597,-0.06802172153185025,1.9167340868227944,-2.988914317833698
2.23525293525922,25.957722816185985,-0.06910571363751153,1.8826704110173669,-2.8705070717552448
2.2213482633149644,25.58450873240374,-0.06994100580504696,1.8494704268050803,-2.7585883992809714
2.207298719507147,25.217852042780613,-0.0705544322731264,1.817096469426187,-2.6526584492874004
2.193146282830536,24.857591087491336,-0.07096993449298053,1.7855130834666235,-2.552264982189957
2.1789283995812103,24.503571093815623,-0.07120889800027598,1.7546868532904982,-2.456998107054671
2.1646784651343016,24.155643783487474,-0.07129044646881098,1.7245862499909792,-2.3664856753415977
2.150426250598443,23.81366700920168,-0.07123169888977703,1.6951814928669595,-2.280389240308941
2.136198281217432,23.477504417542896,-0.071047994920334,1.6664444237208629,-2.198400504960702
2.122018172456022,23.147025135919527,-0.07075309269376556,1.638348392512849,-2.120238192971033
2.107906928911263,22.822103481357495,-0.07035934275382381,1.6108681531074593,-2.0456452866814416
2.093883210511224,22.502618689244994,-0.06987784124656639,1.5839797680175696,-1.9743865843773554
2.0799635698809,22.188454660323927,-0.0693185650566724,1.5576605211931138,-1.9062465358789176
2.0661626642554536,21.879499724402315,-0.06869049119779297,1.531888838023001,-1.841027321246875
2.0524934448910304,21.575646419417843,-0.06800170244644059,1.5066442118216814,-1.7785471422870613
2.0389673265527044,21.276791284619684,-0.06725948093681973,1.4819071361599452,-1.7186387006827601
2.0256080223821824,20.982839700259845,-0.0663335607683976,1.4576087074384483,-1.6569899446238383
2.0124360950326903,20.69370039216187,-0.06538571272652213,1.433784373541288,-1.5981565174138128
1.999455511990323,20.409280244628654,-0.06442011769715247,1.4104171017908735,-1.541976440167522
1.9866694498443054,20.129489469521474,-0.06344050376302468,1.3874906492809018,-1.4882988240507502
1.974080380185093,19.854241452962377,-0.062450192829097265,1.3649895163100652,-1.436982989691653
1.9616901466745387,19.58345261101808,-0.06145214227644569,1.3428989031328815,-1.387897665940173
1.949500034226281,19.317042253730005,-0.060448982206133234,1.321204669747898,-1.3409202599842285
1.9375108311289757,19.05493245690812,-0.05944304876691826,1.2998932984709375,-1.2959361917205228
1.925722884852113,18.79704794115449,-0.058436414001707904,1.278951859065401,-1.2528382860585794
1.9141361521923188,18.543315957625616,-0.05743091259623499,1.2583679762232924,-1.211526217523427
1.902750244345846,18.293666180082298,-0.056428165868493876,1.238129799209928,-1.171906002127501
1.8915644674291818,18.04803060281105,-0.05542960329814666,1.2182259735025318,-1.1338895320163669
1.8805778589133015,17.806343444033963,-0.05443648186065575,1.1986456142683342,-1.097394148864868
1.8697892203871693,17.568541054452968,-0.053449903400667936,1.1793782815416138,-1.0623422524180957
1.8591971470218407,17.334561830601654,-0.052470830252618554,1.1604139569715317,-1.0286609409419252
1.8488000540672624,17.104346132702126,-0.05150009929316542,1.1417430220237603,-0.9962816806766077
1.8385962006789967,16.87783620674685,-0.05053843458949173,1.123356237528969,-0.965140001679132
1.8285837113411092,16.654976110545924,-0.049586458789381185,1.1052447244802859,-0.9351752177001699
1.8187605951238752,16.43571164349889,-0.04864470338296071,1.087399945990058,-0.9063301679732306
1.8091247629903928,16.21999027986752,-0.04771361795186122,1.069813690323632,-0.8785509790005106
1.7996740433443033,16.007761105341697,-0.04679357850903479,1.052478054934603,-0.8517868446047432
1.7904061959912612,15.798974756705029,-0.04588489502138705,1.035385431432067,-0.8259898226816877
1.7813189246693661,15.593583364420226,-0.04498781819756331,1.018528491415945,-0.801114647235965
1.7724098882881585,15.391540497966485,-0.04410254561451325,1.0019001731214836,-0.7771185544157088
1.763676711001835,15.192801113772475,-0.043229227248720664,0.9854936688186192,-0.7539611213806763
1.7551242862989955,14.997511722366802,-0.042295019779674065,0.9674002452381003,-0.7694365644102849
1.7467545945358625,14.805829394276344,-0.04140189785165861,0.9494230356664747,-0.7868035143495956
1.738559497690508,14.617731205777357,-0.040549070601883765,0.9315588493233917,-0.8059415931927263
1.7305310226445325,14.433194858216645,-0.03973567985787093,0.9138046262837402,-0.8267333371048164
1.722661373974721,14.252198652332897,-0.03896080684024646,0.8961574325537531,-0.849063929514675
1.714942945461904,14.074721463517562,-0.038223478287920776,0.8786144555995935,-0.8728209412010769
1.707368330428511,13.900742717926182,-0.037522672046011306,0.8611730003142094,-0.8978940762821472
1.6999303310085847,13.730242369353643,-0.03685732215325193,0.8438304854111919,-0.9241749230362848
1.6926219664470374,13.563200876788791,-0.0362263234622191,0.8265844402373169,-0.9515567084943568
1.6854364805185686,13.399599182565215,-0.0356285358224695,0.809432501998432,-0.9799340557464129
1.678367348150962,13.23941869102573,-0.035062787853598426,0.7923724133964053,-1.009202742901841
1.6714082813323752,13.082641247618287,-0.034527880332268286,0.7754020206780179,-1.039259462629541
1.6645532343777087,12.929249118340486,-0.034022589214396465,0.7585192720999955,-1.0700015811840806
1.6577964086251784,12.779224969448698,-0.033545668310908064,0.7417222168178876,-1.101326895794617
1.6511322566308149,12.632551847345884,-0.0330958516327253,0.7250090042102624,-1.1331333892551931
1.6445554859257467,12.489213158559483,-0.03267185541795739,0.7083778836537432,-1.1653189805074216
1.6380610623987963,12.349192649717224,-0.032272379851545546,0.6918272047688415,-1.1977812699489885
1.6316442133651539,12.212474387424201,-0.0318961104848804,0.6753554181613974,-1.230417278133281
1.6253004303806544,12.07904273793908,-0.03154171936011452,0.6589610766898135,-1.2631231764461093
1.619025471860542,11.948882346540675,-0.031207865841010218,0.6426428372942443,-1.295794008254319
1.612815365561525,11.821978116468191,-0.03089319714915907,0.6263994634305838,-1.3283233989174033
1.606666410986484,11.698315187309174,-0.030596348601249157,0.6102298281595943,-1.360603252936442
1.6005751817723892,11.577878912698218,-0.030315943539698877,0.5941329179499669,-1.3925234363843175
1.5945385281238815,11.460654837176854,-0.030050592945379664,0.5781078372636519,-1.4239714426169399
1.588553579357617,11.34662867205023,-0.029798894717265247,0.5621538140025917,-1.4548320391072227
1.5826177466259286,11.235786270059148,-0.02955943259961857,0.5462702059082355,-1.484986893072428
1.576728725892697,11.128113598666417,-0.02933077473269805,0.5304565080190846,-1.5143141733826952
1.5708845012396409,11.023596711733784,-0.029111471797862602,0.5147123613072423,-1.5426881260467449
1.5650833485876245,10.922221719339788,-0.028900054722300145,0.4990375626327324,-1.5699786203743151
1.5593238399251643,10.823974755459073,-0.028695031902302603,0.48343207617443223,-1.5960506627207969
1.553604848145239,10.728841943189725,-0.028494885896951257,0.46789604651903755,-1.6207638745382795
1.5479255526019313,10.63680935717635,-0.02829806953612469,0.452429813614705,-1.6439719313044747
1.5422854455105457,10.547862982832484,-0.028103001377731716,0.4370339298239686,-1.665521958799583
1.5366843393288931,10.461988671915975,-0.027908060438793382,0.4217091793411294,-1.6852538831842225
1.531122375273696,10.379172093954637,-0.02771158011317807,0.40645660027223995,-1.7029997314466043
1.5256000331448716,10.29939868295638,-0.02751184117506701,0.39127750971031383,-1.718582879102233
1.5201181426522554,10.222653578768035,-0.02730706375109236,0.3761735321731263,-1.7318172426414886
1.5146778964646623,10.148921562370365,-0.027095398124839517,0.3611466318035918,-1.7425064152675351
1.5092808652307765,10.078186984314069,-0.026874914214018445,0.3461991487593846,-1.7504427461453511
1.5039290148562166,10.010433685414817,-0.026643589531580386,0.33133384023313733,-1.7554063659714
1.4986247263625458,9.94564490873773,-0.026399295405128028,0.3165539265377438,-1.7571641655697088
1.4933708187039632,9.883803201819106,-0.02613978118069861,0.3018631426484902,-1.7554687399893643
1.4881705749786849,9.82489030800497,-0.025862656072085793,0.2872657954928588,-1.7500573190265267
1.483027772548772,9.768887045747022,-0.025565368227041564,0.2727668270866226,-1.7406507173699137
1.4779467176806702,9.715773174710211,-0.025245180453976536,0.2583718832814736,-1.7269523553102586
1.4729322854486122,9.665527247647972,-0.02489914186660338,0.2440873873408978,-1.7086474264935376
1.4679899658192885,9.61812644724506,-0.024524054426633298,0.22992061668823568,-1.685402325844877
1.4631259170822413,9.573546407594765,-0.024116432943839895,0.2158797798147206,-1.656864503214845
1.458347028143392,9.53176102078659,-0.02367245644465437,0.20197408826702085,-1.6226629830202361
1.4536609917179124,9.492742230406705,-0.023187907810139578,0.18821381553182742,-1.5824098960985051
1.4490763912373867,9.456459815847229,-0.022658096995115777,0.1746103300629291,-1.535703519022877
1.44460280547534,9.42288117453122,-0.022077760625354183,0.16117608309716758,-1.4821335230863464
1.4402509367351457,9.391971113956433,-0.02144092677658738,0.14792452265069844,-1.4212894166124461
1.436032771317738,9.363691672424988,-0.02074072739748744,0.13486989266376864,-1.3527735336516964
1.4319617854978257,9.338001997079644,-0.019969130801637276,0.12202686078967634,-1.2762203770196057
1.4280532173292282,9.314858320824385,-0.019116550884336923,0.109409901762904,-1.191324615800469
1.4243244357185834,9.294214095446446,-0.01817126522211331,0.09703235201649811,-1.09788040995096
1.4207954555340727,9.27602035414111,-0.017118536622991835,0.0849050610368573,-0.9958346026585324
1.4174896743532355,9.260226385094228,-0.015939275185380478,0.0730346294319822,-0.8853548812052975
1.4144349481759186,9.246780781615794,-0.014607986587787088,0.06142140535235214,-0.7669098335085317
1.4116651909089684,9.235632860174594,-0.013089586081715449,0.050057809059656566,-0.6413489677960081
1.4092228057710647,9.226734248966693,-0.011334265297322576,0.03892830301935463,-0.5099559675663602
1.4071625414375677,9.220040054813119,-0.009268378037647356,0.02801363851638948,-0.37443060104692955
1.4055582448773782,9.21550819753211,-0.00677458756424604,0.017304934293707636,-0.23674489707017501
1.4045177606789432,9.213093070001293,-0.0036302544201044966,0.006846341014452639,-0.09883500519616115
