x,y,v_x,v_y,omega
2.375,32.48,0.0,3.4871794871794872,-2.979591836734694
2.374115104088904,31.757505077527217,-0.008427580105677882,3.3937245363708004,-2.756256022258615
2.371613103645987,31.05416562099312,-0.015400995541150802,3.3047464782396263,-2.5582366767305897
2.36777398087314,30.369076375768927,-0.021162078485962153,3.219913000086027,-2.3818546809335377
2.362831491914985,29.701398402358773,-0.02590924492503755,3.138924841915458,-2.2240580380297943
2.356981390393364,29.050352576133648,-0.02980600766182968,3.061511598323845,-2.0823011760625323
2.3503880539766597,28.415213899037767,-0.03298767249725622,2.987428183541662,-1.9544499431684508
2.3431898514508016,27.79530649740317,-0.03556663727282249,2.9164518320259307,-1.8387063251286684
2.3355035105863293,27.189999203744126,-0.037636609055484146,2.848379536155437,-1.733548415794666
2.3274276889251504,26.598701638820494,-0.0392759781938399,2.7830258440696527,-1.6376822663103914
2.3190459054239976,26.020860724733627,-0.04055053134095024,2.720220956757631,-1.550003046080573
2.310428957088255,25.455957571327144,-0.04151564328517166,2.6598090756850707,-1.4695635482217737
2.301636918698811,24.903504687411697,-0.042218055661912224,2.601646961604903,-1.3955485216088317
2.292720803565128,24.3630434758338,-0.04269732656364082,2.545602672470331,-1.3272536508541857
2.2837239475193702,23.83414197754542,-0.04298701672928943,2.4915544540856107,-1.2640682634387648
2.2746831660500653,23.31639283489131,-0.04311566393075547,2.439389761667822,-1.2054610405559347
2.265629724773218,22.809411448532668,-0.043107586324935256,2.389004394128783,-1.150968160190055
2.2565901557610886,22.312834305937617,-0.04298354712391411,2.340301725824085,-1.1001834186572024
2.2475869461438363,21.826317462320702,-0.042761306373727145,2.2931920229084497,-1.052749968520587
2.2386391205231586,21.349535157408482,-0.04245608048986967,2.2475918333983795,-1.0083533825908377
2.2297627348260574,20.88217855352711,-0.04208092614918999,2.2034234416623355,-0.9667158102316417
2.220971296077117,20.423954582315226,-0.041647061935957144,2.160614379403205,-0.9275910368855845
2.212276120021181,19.97458488891425,-0.04116413859676406,2.1190969863203946,-0.8907602932486993
2.203686636461804,19.533804863819615,-0.04064046673063895,2.078808014580885,-0.856028688867022
2.1952106504978386,19.101362753726228,-0.040083209116651,2.039688272022785,-0.8232221676484914
2.1868545664651204,18.677018843696658,-0.03949854357590253,2.001682299687408,-0.7921849010701015
2.1786235802624208,18.260544703845476,-0.03889180121171402,1.9647380798476644,-0.7627770496368513
2.1705218448131682,17.85172249448668,-0.03826758401926223,1.9288067711885024,-0.7348728351351462
2.16255261264899,17.45034432434952,-0.03762986516338635,1.8938424682130266,-0.7083588759817335
2.1547183589676546,17.056211657044912,-0.03698207465885506,1.859801982307017,-0.683132745942381
2.1470208879922525,16.66913476147125,-0.03632717272592632,1.8266446422041036,-0.6591017230313806
2.139461425020893,16.288932202294365,-0.0356677127155927,1.7943321118614404,-0.6361817007801747
2.1320406961910545,15.915430367030204,-0.03500589518763122,1.7628282239877173,-0.614296238500962
2.1247589976772328,15.54846302660646,-0.034343614467814046,1.7320988276669995,-0.5933757308446936
2.117616255784296,15.187870926588175,-0.03368249879825041,1.7021116486976111,-0.5733566800031692
2.1106120791835186,14.833501406525954,-0.033023945018679175,1.6728361614187868,-0.5541810564451881
2.1037458043567017,14.485208045129099,-0.032369148570053304,1.6442434709322047,-0.5357957361982102
2.0970165351604333,14.142850329183155,-0.03171912948964608,1.6163062047434495,-0.5181520044636868
2.0904231772927098,13.806293344325116,-0.0310747549648622,1.5889984129521404,-0.5012051168461759
2.0839644683340164,13.475407485963004,-0.030436758927455055,1.562295476210825,-0.48491391073246937
2.0776390039413353,13.15006818878176,-0.02980575909808155,1.5361740207533918,-0.4692404604172157
2.0714452606938094,12.830155673416819,-0.02918227183073305,1.5106118398650872,-0.4541497704686685
2.065381616020739,12.515554709001893,-0.028566725055652,1.485587821229425,-0.4396095025891607
2.0594544380337156,12.206154968881602,-0.02788258910647674,1.4610763703924008,-0.4234011968778819
2.053669269407036,11.901850204196847,-0.027214254957139507,1.4370642456528766,-0.40795619656716825
2.0480228046812843,11.602537471882197,-0.026561599573826828,1.4135332049628517,-0.3932293456261196
2.042511768622845,11.308117569856105,-0.0259244581255953,1.3904658619523023,-0.37917866607477024
2.0371329242657303,11.018494862603141,-0.025302630989782648,1.367845635694962,-0.36576509896105985
2.031883079581019,10.733577116937798,-0.024695889816990002,1.3456567039749625,-0.3529522692524165
2.0267590929584225,10.453275347244382,-0.024103982779170557,1.3238839597718755,-0.34070627218088484
2.021757877660303,10.177503669544045,-0.023526639107680467,1.30251297070753,-0.32899547885946084
2.0168764053875456,9.906179163791531,-0.022963573013820394,1.281529941221169,-0.3177903592316347
2.0121117090785265,9.639221743850971,-0.022414487072072782,1.2609216772603613,-0.3070633206306793
2.0074608850467186,9.376554034642776,-0.0218790751356262,1.2406755532938627,-0.29678856041388385
2.002921094548792,9.11810125599262,-0.021357024844625573,1.2207794814695345,-0.28694193130308654
1.9984895648632395,8.86379111274897,-0.02084801977968484,1.2012218827557068,-0.2775008182094144
1.9941635899492038,8.613553690768214,-0.02035174130636788,1.1819916599181715,-0.2684440254495867
1.9899405307462399,8.367321358396072,-0.01986787015043234,1.1630781721974726,-0.25975167337564037
1.985817815167901,8.125028673101276,-0.019396087738509957,1.1444712115624742,-0.2514051035413584
1.9817929378352395,7.886612292942441,-0.01893607733445571,1.126160980426433,-0.24338679161863708
1.9778634595903588,7.652010892571948,-0.018487524997742668,1.108138070721111,-0.23568026735692035
1.9740270068249681,7.421165083501773,-0.018050120386929023,1.0903934442329217,-0.22827004094987416
1.9702812706543682,7.194017338375474,-0.017623557428309705,1.072918414112791,-0.2211415352367326
1.9666240059633262,6.970511919008395,-0.017207534867328032,1.0557046274784219,-0.21428102322213932
1.963053030346855,6.750594807974586,-0.016801756718112442,1.0387440490340307,-0.20767557044864482
1.9595662229658726,6.5342136435339775,-0.016405932624575657,1.0220289456384508,-0.2013129818009992
1.9561615233350849,6.321317657707368,-0.01601977814483141,1.0055518717578147,-0.19518175236162302
1.95283693005811,6.111857617319689,-0.015643014969214615,0.9893056557438863,-0.18927102197268236
1.9495935600905065,5.905922573117884,-0.015246222817486194,0.9719804795113937,-0.20947323032862594
1.9464304576334113,5.703613988149446,-0.014878562488181842,0.9547679487594511,-0.23149474021981784
1.9433415212966727,5.504908533221361,-0.01453987881409113,0.9376649553175483,-0.25522889712765745
1.9403206917667495,5.309783519363933,-0.01422992623279615,0.9206685099912991,-0.28057184216411735
1.9373619699448028,5.118216873356065,-0.013948376833362159,0.9037757377026909,-0.30742228584722264
1.934459433463041,4.930187114230932,-0.013694827754847488,0.8869838730128737,-0.3356812884809744
1.9316072517105822,4.74567333068331,-0.013468807982853472,0.8702902560121051,-0.36525204627848873
1.9287996994908065,4.564655159302848,-0.013269784586438925,0.8536923285637087,-0.39603968238537873
1.9260311694236525,4.3871127635600935,-0.013097168434075952,0.8371876308911119,-0.42795104197289546
1.9232961831985653,4.213026813474109,-0.012950319423895976,0.8207737984992255,-0.460894490577032
1.920589401776731,4.0423784658922095,-0.0128285512602399,0.8044485594236357,-0.49477971486060096
1.9179056346348329,3.8751493453133783,-0.012731135805458364,0.7882097318033279,-0.5295175249700699
1.9152398481367965,3.711321525187657,-0.01265730703298225,0.7720552217749711,-0.5650196576474656
1.9125871731148214,3.55087750962392,-0.012606264604875508,0.7559830216891997,-0.6011985792396493
1.9099429117364009,3.393800215438109,-0.012577177094367951,0.7399912086518624,-0.637967287722368
1.907302543730014,3.240072954473092,-0.012569184871220749,0.7240779433959038,-0.6752391128242595
1.9046617320386923,3.0896794161198144,-0.0125814026651775,0.708241469492444,-0.7129275132959073
1.9020163279677305,2.9426036499672676,-0.012612921820173883,0.6924801129127667,-0.7509458703205107
1.899362375890426,2.7988300485060087,-0.012662812249392806,0.6767922819563748,-0.7892072760050277
1.8966961175738832,2.6583433298063603,-0.012730124098632308,0.661176467564078,-0.827624315822978
1.894013996185636,2.5211285200880056,-0.012813889122770894,0.6456312440393048,-0.8661088438015422
1.8913126600411243,2.387170936092293,-0.012913121777338147,0.6301552702055684,-0.9045717491551417
1.888588966151953,2.256456167162206,-0.013026820024293244,0.6147472910333409,-0.9429227129642145
1.8858399836353577,2.1289700569272654,-0.013153965848043075,0.5994061397756129,-0.9810699533801844
1.8830629970464956,2.00469868448171,-0.013293525474453864,0.5841307406582515,-1.01891995770435
1.8802555096970595,1.8836283449337934,-0.013444449282080034,0.5689201121790648,-1.0563771995382067
1.877415247026386,1.7657455291917614,-0.013605671391000473,0.5537733710783784,-1.0933438390341848
1.874540160094733,1.6510369028378484,-0.013776108910458376,0.538689737054138,-1.1297194040875627
1.8716284292728371,1.5394892839250076,-0.013954660821882223,0.5236685383062557,-1.1654004501012334
1.8686784682073208,1.431089619511969,-0.014140206468749547,0.5087092180083849,-1.200280195724126
1.8656889281481008,1.3258249607299035,-0.014331603619059368,0.49381134182079733,-1.234248131711105
1.8626587027318195,1.2236824361482554,-0.014527686059809546,0.4789746065758634,-1.2671895997775644
1.8595869333245885,1.124649223177535,-0.014727260675723861,0.4641988502881529,-1.2989853380276253
1.856473015038214,1.0287125172124796,-0.014929103956415885,0.44948406366475013,-1.3295109892247798
1.853316603546748,0.9358594981792479,-0.015131957867067749,0.4348304033184137,-1.3586365678551235
1.850117622844932,0.8460772941045178,-0.015334525007371478,0.4202382069171195,-1.3862258816176558
1.846876274107127,0.7593529412716578,-0.01553546297172533,0.40570801053867406,-1.4121359026819997
1.8435930458250196,0.6756733404685242,-0.015733377810250974,0.3912405685387783,-1.436216083809596
1.8402687254250898,0.5950252087619994,-0.015926816474793003,0.37683687628528034,-1.458307614282666
1.8369044125930263,0.5173950261552243,-0.016114258116289446,0.3624981961601999,-1.4782426105895015
1.833501534562495,0.4427689763936158,-0.016294104079246665,0.3482260872837144,-1.4958432370686976
1.8300618636606183,0.3711328810845771,-0.01646466641481559,0.3340224394690583,-1.5109207523564845
1.8265875374430203,0.3024721261833534,-0.016624154705165387,0.31988951197117027,-1.5232744787119195
1.8230810817984868,0.2367715797742207,-0.016770660957057912,0.3058299776396089,-1.5326906934090903
1.8195454374586373,0.17401549994458065,-0.016902142279605684,0.29184697311886865,-1.5389414448142515
1.815983990413557,0.11418743141415888,-0.017016401006871015,0.2779441557423155,-1.5417833011385185
1.8124006068130503,0.05727008945098788,-0.01711106185510034,0.26412576771646945,-1.540956048094449
1.8087996730293405,0.0032452294950928717,-0.017183545608800387,0.25039670805396036,-1.5361813641367152
1.8051861416773032,-0.04790649915567258,-0.017231038696318694,0.23676261242952484,-1.5271615206109388
1.801565584542832,-0.09620571722548021,-0.01725045782245434,0.2232299406162591,-1.5135781818708158
1.7979442535750687,-0.1416744983690137,-0.01723840853719378,0.20980607027455178,-1.4950914214999318
1.794329151380121,-0.18433657216081656,-0.017191136176594977,0.1964993944093076,-1.4713391313933653
1.7907281130555142,-0.22421754740869915,-0.017104466914898517,0.18331941747526473,-1.4419370896084645
1.7871499017967527,-0.26134515459506247,-0.016973735549496223,0.17027684144245053,-1.406480083457281
1.7836043216077522,-0.2957495038323472,-0.016793694821936933,0.1573836274840634,-1.3645446742899403
1.7801023518523724,-0.3274633508130549,-0.01655839808644154,0.14465301042742432,-1.3156944639483656
1.7766563106244309,-0.3565223571209799,-0.016261042179669068,0.1320994306004013,-1.2594891097511351
1.7732800575400263,-0.3829653219917475,-0.015893749100375526,0.11973833007359744,-1.1954988654243754
1.7699892524874454,-0.4068343490429527,-0.01544725140039375,0.10758573708071126,-1.1233271131526783
1.766801696622218,-0.42817489268315256,-0.014910423506534749,0.09565753568308928,-1.0426441476556596
1.7637377979352564,-0.4470356050709512,-0.014269563988337456,0.08396829658168549,-0.9532361575691726
1.7608212300124841,-0.46346787945537926,-0.013507273371399979,0.07252955469860856,-0.8550733103972867
1.7580798955422852,-0.4775249721313912,-0.012600673963826197,0.0613475184062595,-0.7483986916802446
1.7555473768819434,-0.48926061412319655,-0.011518551372764198,0.050420500563314506,-0.6338329470329715
1.7532651790849472,-0.498727158742156,-0.010216665741485538,0.03973706723628312,-0.512474145766346
1.751286321263457,-0.5059736658312985,-0.008629599225085549,0.02927728599362006,-0.3859467470970339
1.749681509107798,-0.5110451077490339,-0.006654326066907046,0.019022160841964925,-0.25632528342390637
1.7485517335932341,-0.5139858442635159,-0.004105440738460529,0.008984853581653452,-0.12585170335797416
