x,y,v_x,v_y,omega
2.375,32.48,0.0,3.5897435897435894,-3.959183673469388
2.37379293978466,31.736508227131225,-0.011495811574666018,3.491130437578036,-3.6542256994478834
2.370384722242139,31.01321215460134,-0.02096340311600964,3.3974035865161025,-3.3848386084782027
2.3651650218683127,30.309125268165204,-0.02874802901567252,3.308185808113776,-3.145710216469667
2.358457674509877,29.623336117162875,-0.035131469636095564,3.223139439527449,-2.9324588424912563
2.3505326671640474,28.9550005726254,-0.040344790800375264,3.1419609846389727,-2.741449102491821
2.3416157420554833,28.303335121245354,-0.044578305471663845,3.0643766475519496,-2.5696481066211425
2.33189613256504,27.667611020175613,-0.04798940396113176,2.990138600731316,-2.4145123611177444
2.321532826687093,27.047149173936237,-0.05070874725740973,2.919021839643674,-2.273898202857856
2.3106596628444063,26.44131562209849,-0.052845194101511714,2.850821511192014,-2.1459904113898753
2.2993894945615048,25.849517547380923,-0.05448974192611983,2.785350628975289,-2.0292449640382273
2.287817608681058,25.271199730063266,-0.05571869503051528,2.722438107383332,-1.922342869672684
2.2760245422159344,24.705841387410565,-0.056596223684950035,2.661927060737624,-1.8241527358058724
2.2640784124683235,24.15295334696517,-0.05717644057800966,2.603673324456617,-1.7337002613005499
2.252036851460369,23.612075510730396,-0.057505092831083834,2.5475441634936304,-1.650143252116908
2.2399486173474674,23.082774573892898,-0.05762094633940466,2.4934171397206355,-1.5727510651030407
2.227854941093196,22.564641967149523,-0.05755692274889635,2.4411791149781705,-1.5008876199388421
2.2157906553516358,22.057291996172637,-0.0573410366945313,2.390725370515994,-1.4339973002209128
2.2037851435341516,21.560360155459108,-0.05699717109103374,2.3419588267557163,-1.3715932046801855
2.1918631399065887,21.073501596910624,-0.05654572060004133,2.2947893498964906,-1.3132473185153095
2.1800454058675234,20.596389736102232,-0.05600412739105769,2.249133133992976,-1.2585822601365049
2.1683493029900642,20.128714981402332,-0.05538732858474272,2.2049121488632006,-1.2072643257380646
2.156789279730788,19.670183572982594,-0.05470813102741183,2.162053645610494,-1.1589976071919625
2.145377285735004,19.22051652035703,-0.05397752607529528,2.1204897127282183,-1.113519000919103
2.1341231252538018,18.77944862846232,-0.05320495469805732,2.0801568767452374,-1.0705939590428846
2.12303475922253,18.346727603473024,-0.052398531314054524,2.0409957422004066,-1.030012861098436
2.1121185639438327,17.92211323056633,-0.051565233244969616,2.0029506664347383,-0.9915879062760604
2.1013795530011468,17.505376616735944,-0.05071106144727445,1.9659694652832698,-0.9551504437163626
2.090821567945072,17.096299492524587,-0.049841177182010366,1.9300031462534712,-0.9205486726015758
2.0804474424010553,16.694673567216114,-0.04896001847529097,1.895005666208166,-0.8876456553710538
2.0702591435070863,16.300299932615506,-0.048071399562511274,1.8609337109404689,-0.8563175968537948
2.0602578939761615,15.91298851106042,-0.04717859597010458,1.827746494346068,-0.8264523498714963
2.0504442775674137,15.532557543760984,-0.04628441744653979,1.7954055751723834,-0.7979481142501924
2.0408183303235163,15.158833115963933,-0.04539127059057803,1.7638746895614317,-0.770712301448033
2.031379619575399,14.791648715790021,-0.044501212724826725,1.7331195978091476,-0.7446605413696198
2.022127312416269,14.430844823906035,-0.0436159983145046,1.7031079439431163,-0.7197158115605025
2.0130602350955633,14.076268531469925,-0.042737119025549095,1.673809126876985,-0.6958076719932476
2.004176924571646,13.727773184034007,-0.04186583834509245,1.6451941820365306,-0.6728715911772583
1.9954756732832175,13.385218049310591,-0.0410032215447033,1.617235672472179,-0.6508483514359766
1.9869545680480247,13.048468006900318,-0.04015016164760969,1.5899075885780372,-0.6296835229684742
1.9786115238690893,12.717393258258458,-0.03930740196129766,1.563185255630147,-0.6093269978057756
1.9704443133195797,12.39186905533126,-0.03847555565308106,1.5370452484384138,-0.5897325760330012
1.9624505920845539,12.071775446434941,-0.03765512277573553,1.511465312478889,-0.5708575977154244
1.9546279211585629,11.756997038076268,-0.03684650509084518,1.4864242909370542,-0.5526626148717775
1.9469842030545745,11.447423708876471,-0.035950810185234064,1.4618931300133762,-0.5322801939460239
1.939526312593818,11.14294939933264,-0.035076718012448216,1.4378621989754823,-0.5128579004825066
1.9322497405387287,10.84347098226954,-0.034223968226496336,1.4143132016254722,-0.49433891545041175
1.9251500370357746,10.548889082445072,-0.03339225561116334,1.3912287014647178,-0.47667042046821445
1.918222820181811,10.259107901324771,-0.03258123823610708,1.3685920711095845,-0.4598032715655913
1.9114637829951646,9.97403505210777,-0.03179054449386052,1.3463874452428226,-0.4436917030836647
1.9048686990108654,9.693581404291773,-0.03101977916613125,1.324599676814288,-0.4282930586099581
1.898433426690417,9.417660937122022,-0.030268528647662087,1.3032142962309587,-0.41356754619620156
1.892153912811356,9.14619060132129,-0.029536365438633194,1.2822174732998268,-0.39947801541545264
1.8860261949801183,8.879090188545423,-0.028822852001725942,1.2615959817084508,-0.3859897540856848
1.8800464033928836,8.616282208052095,-0.028127544067175783,1.2413371658470433,-0.37307030272501196
1.8742107619527282,8.357691770109874,-0.027449993458114687,1.221428909793162,-0.36068928501331626
1.8685155888372322,8.103246475710556,-0.026789750498988036,1.2018596082955761,-0.3488182527199035
1.8629572965983696,7.85287631218069,-0.026146366061609937,1.1826181396078936,-0.33743054372007464
1.8575323918657878,7.606513554318166,-0.025519393296310706,1.1636938400351977,-0.32650115186790263
1.8522374747152806,7.3640926707072865,-0.02490838908947424,1.1450764800684028,-0.3160066076203999
1.8470692377561257,7.125550234891001,-0.024312915283427657,1.1267562419914388,-0.305924868421685
1.842024464983914,6.890824841102042,-0.02373253969001705,1.1087236988557938,-0.2962352179564878
1.837100030439318,6.659857024276004,-0.023166836925184082,1.0909697947255155,-0.2869181734718976
1.8322928967078953,6.43258918408895,-0.02261538908836502,1.0734858261035518,-0.27795540044600425
1.82760011329133,6.2089655127800505,-0.0220777863074954,1.0562634244574054,-0.2693296339531665
1.8230188148764284,5.988931926536328,-0.021553627167758244,1.039294539768529,-0.26102460613908596
1.8185462195246234,5.772436000231874,-0.021042519039909224,1.0225714250357798,-0.2530249792755579
1.8141796268016224,5.559426905327911,-0.02054407832200283,1.0060866216686308,-0.2453162839154837
1.8099164158641203,5.349855350753078,-0.020057930606590512,0.9898329457107421,-0.2378848617141541
1.8057580578265284,5.143811366537442,-0.01954547927523493,0.9724907134858104,-0.2569006157117542
1.8017039187830677,4.941397345367722,-0.019065368757724403,0.9552618690829436,-0.2777729259479577
1.7977472369379712,4.742589805558254,-0.01861731548129198,0.9381432719596251,-0.3003932206872004
1.793881319033045,4.547365912207152,-0.018200950279909475,0.9211319028127803,-0.32465582000007437
1.7900995574993925,4.355703452260585,-0.017815826231064175,0.9042248585831052,-0.3504577031804294
1.7863954460305,4.167580810584745,-0.017461425853627515,0.8874193478534731,-0.3776982832059762
1.7827625937060394,3.9829769469644845,-0.017137167712663718,0.8707126866251979,-0.4062791873477059
1.7791947377865283,3.8018713739507213,-0.016842412473156904,0.8541022944582489,-0.4361040430547711
1.7756857552905405,3.624244135481405,-0.016576468441013268,0.8375856909638013,-0.4670782682567935
1.7722296734584733,3.45007578620303,-0.016338596626292556,0.8211604926397632,-0.4991088652348797
1.768820679199869,3.279347371421423,-0.01612801536041355,0.8048244100421975,-0.532104217215885
1.765453127614942,3.1120404076117687,-0.01594390449603594,0.7885752452878529,-0.5659738868415468
1.762121549675239,2.948136863418579,-0.015785409215421518,0.7724108898853868,-0.6006284156548221
1.7588206591432385,2.7876191410766076,-0.01565164347029658,0.7563293228953109,-0.6359791237298544
1.7555453588061343,2.6304700581833664,-0.015541693073551537,0.7403286094212699,-0.6719379085491365
1.752290746095059,2.476672829753145,-0.015454618460498915,0.724406899437992,-0.7084170422012074
1.749052118157548,2.326211050480918,-0.015389457134843378,0.7085624269641856,-0.7453289659341541
1.7458249764481324,2.179068677142535,-0.015345225811972493,0.6927935095918315,-0.782586081053683
1.7426050308995644,2.0352300110547787,-0.015320922269629106,0.6770985483867888,-0.8201005350989327
1.739388203735341,1.894679680515324,-0.015315526913448705,0.6614760281794594,-0.8577840021637423
1.736170632982897,1.7574026231382902,-0.015328004062209494,0.6459245182684954,-0.8955474561549162
1.7329486757460986,1.6233840679957439,-0.015357302954918618,0.6304426735652799,-0.9333009356911595
1.729718911295536,1.4926095174691056,-0.015402358479012012,0.61502923621223,-0.9709532992457585
1.7264781440355659,1.3650647287068516,-0.01546209161594163,0.5996830377139855,-1.0084119690215747
1.7232234064081835,1.24073569457601,-0.01553540959722267,0.5844030016273597,-1.0455826619173065
1.7199519617956152,1.1196086239844512,-0.015621205760570854,0.569188146863683,-1.082369105797965
1.7166613074860924,1.0016699214388325,-0.015718359092027012,0.5540375916660127,-1.1186727391188511
1.7133491777706613,0.8869061656888526,-0.01582573343588829,0.5389505583338104,-1.15439239176981
1.710013547243166,0.7753040872919783,-0.015942176349780728,0.5239263787792839,-1.189423944804161
1.706652634380828,0.6668505449137996,-0.016066517577247162,0.5089645010129092,-1.2236599664937988
1.7032649054892226,0.5615325001569964,-0.01619756710470832,0.49406449667094215,-1.2569893219084363
1.6998490791030614,0.4593369906864382,-0.01633411276349388,0.479226069715305,-1.2892967529536818
1.6964041309431679,0.3602511013884069,-0.016474917330730397,0.4644490664564138,-1.3204624255218937
1.6929292995405563,0.2642619332678535,-0.016618715075095616,0.4497334870726567,-1.3503614401160144
1.6894240926507815,0.1713565697484185,-0.016764207684664235,0.435079498826715,-1.3788633020075372
1.6858882945959595,0.08152203999465968,-0.016910059504114748,0.42048745120910297,-1.405831346697847
1.682321974688317,-0.005254721176015664,-0.017054891997244123,0.4059578932735248,-1.4311221161867265
1.6787254969081364,-0.08898691728378338,-0.01719727733780636,0.3914915934671448,-1.454584681342239
1.6750995310308974,-0.16968793863951248,-0.017335731016852683,0.3770895623016943,-1.4760599055563886
1.6714450654236779,-0.24737141589830003,-0.017468703337619015,0.3627530782582149,-1.4953796449259134
1.6677634217600756,-0.32205127943908707,-0.01759456964906899,0.348483717368327,-1.5123658805126858
1.664056271936619,-0.39374182539423686,-0.0177116191457568,0.3342833869664602,-1.5268297789530119
1.6603256575127727,-0.46245778926223124,-0.017818042033730924,0.32015436415726384,-1.5385706790030624
1.6565740120422587,-0.5282144281551595,-0.017911914828308062,0.3060993395849094,-1.5473750038250702
1.6528041867169954,-0.5910276128588663,-0.017991183507531566,0.2921214671170571,-1.5530151023672893
1.6490194798085813,-0.6509139310115302,-0.01805364419164988,0.27822442005116843,-1.5552480286987416
1.645223670468837,-0.7078908028279898,-0.01809692094877471,0.2644124543912776,-1.5538142765443275
1.6414210575448895,-0.761976610896312,-0.018118440231676674,0.2506904795927721,-1.5484364988654034
1.6376165041822766,-0.8131908456253854,-0.018115401317018137,0.23706413687456027,-1.5388182611007857
1.6338154891419352,-0.8615542678870511,-0.018084741924327064,0.22353988466512745,-1.524642904479985
1.6300241659602,-0.9070890902109809,-0.018023097901723427,0.2101250898485112,-1.5055726368119233
1.6262494313614901,-0.9498191774558364,-0.017926755419322517,0.1968281220072789,-1.4812480283962144
1.622499004734372,-0.9897702670464454,-0.017791593410374753,0.18365844552230165,-1.451288178939213
1.6187815210739607,-1.0269702074044176,-0.0176130128792587,0.17062670074406916,-1.415291950016658
1.6151066406944679,-1.0614492107691191,-0.017385847877814737,0.1577447598721589,-1.3728408439646433
1.6114851804199757,-1.0932401127119817,-0.017104249974491354,0.14502573482174658,-1.3235043769920438
1.6079292731936752,-1.122378624596827,-0.01676153313313245,0.13248390217678255,-1.2668491695713862
1.6044525666452212,-1.148903556122498,-0.01634995780452563,0.12013449330581477,-1.2024534880114357
1.6010704770142659,-1.172856971852056,-0.0158604196331425,0.10799327554711545,-1.129929626791225
1.5978005244054154,-1.1942842274425018,-0.01528198616543467,0.09607582531429118,-1.0489572678571224
1.594662791001301,-1.2132338084868977,-0.014601189111844564,0.0843963751085014,-0.9593315701538878
1.5916805693353666,-1.2297568713624258,-0.013800921992292364,0.07296612846792958,-0.8610296322240691
1.5888813090314653,-1.243906373638147,-0.012858699949624703,0.06179103606277901,-0.7542967973000139
1.5862980380069676,-1.2557357112750296,-0.011743881236066653,0.05086932238370034,-0.6397475571910352
1.583971551019029,-1.265296911402288,-0.010413137696680865,0.040189726447333776,-0.5184611673281339
1.581953895088654,-1.2726387691370036,-0.008802633068797465,0.029732728169012672,-0.39202792609892423
1.580314316371945,-1.2778060592634333,-0.006812402328431638,0.019479558749346673,-0.26247577173201686
1.5791512471010847,-1.2808427810153589,-0.004264447870238037,0.00944160079282129,-0.1320009019129599
1.5786291917466682,-1.2818115001172714,-0.0007075078861093933,-0.00021570458415872892,-0.002512801441414775
