x,y,v_x,v_y,omega
2.375,32.48,0.0,3.230769230769231,-3.4693877551020407
2.3743168157987715,31.904995800242247,-0.007590935569203656,3.158166322094656,-3.2587810820535914
2.3723640801854553,31.34280999408987,-0.014106126800976022,3.0883426351539947,-3.0672224307580502
2.369322332289907,30.792957591283304,-0.01969107203844931,3.0211285071411837,-2.892471501571061
2.3653478395026686,30.254982875471548,-0.02446995893086875,2.956368335211671,-2.732599739855973
2.3605761248913755,29.72845701002973,-0.028549092305720197,2.893919058586299,-2.585941011534464
2.3551249319728673,29.212975898385707,-0.03201971789992959,2.8336488485695064,-2.4510509705959
2.3490967251310506,28.70815826459591,-0.03496035812025418,2.775435971317129,-2.3266734340745576
2.3425808052457673,28.213643925602437,-0.037438751716227084,2.7191677952770177,-2.211712436018593
2.33565510524909,27.729092231166803,-0.03951347046907577,2.6647399206744686,-2.1052089064205517
2.328387718483104,27.254180651168056,-0.041235271375212004,2.6120554126449296,-2.00632113412256
2.320838203238741,26.788603492966086,-0.042648231339931654,2.561024122932513,-1.9143083391583247
2.3130586992058673,26.332070734009537,-0.0437907023586693,2.511562087695799,-1.8285168108225978
2.3050948853738236,25.88430695692195,-0.044696117997368265,2.4635909910551903,-1.7483681711684758
2.2969868038894696,25.445050376014024,-0.04539367627323128,2.4170376856995603,-1.6733494058015483
2.288769570273034,25.01405194560993,-0.04590891946494475,2.3718337632348043,-1.6030043694548626
2.2804739870278112,24.59107454179236,-0.0462642277041962,2.327915168071532,-1.5369265264705128
2.272127074913705,24.175892210205,-0.04647924023032113,2.285221849565812,-1.4747527287349376
2.263752533872628,23.76828947343437,-0.046571215781641855,2.243697447885619,-1.416157867944224
2.255371143704959,23.368060692250985,-0.046555341636902656,2.2032890097075493,-1.3608502669679712
2.2470011130279217,22.975009475643315,-0.04644499921906527,2.163946730377661,-1.3085676978293765
2.2386583837406815,22.58894813514388,-0.04625199286138401,2.1256237196160317,-1.2590739324414826
2.230356897130069,22.209697179438468,-0.04598674725653138,2.0882757882219067,-1.2121557475371174
2.222108826837237,21.837084845678355,-0.045658478219382174,2.0518612535571394,-1.1676203178388662
2.2139247831383093,21.470946664290842,-0.0452753406575894,2.016340761859668,-1.1252929419416935
2.2058139923461555,21.111125054412824,-0.044844557033007236,1.9816771256738337,-1.085015054029268
2.197784454595213,20.757468947362376,-0.04437252908857734,1.9478351748867413,-1.0466424817403435
2.18984308281004,20.40983343581944,-0.043864935191122334,1.914781620034762,-1.0100439165052575
2.1819958252671254,20.068079446613673,-0.04332681528570489,1.8824849266959733,-0.9750995676961223
2.1742477738270374,19.732073435218574,-0.04276264515971966,1.850915199916265,-0.9416999761490321
2.1666032596308273,19.401687100230227,-0.042176401464834284,1.8200440777319928,-0.9097449661621013
2.1590659378129122,19.076797116268594,-0.041571618734226504,1.789844632952817,-0.8791427180632584
2.1516388625759113,18.75728488388173,-0.04095143945467312,1.7602912824567738,-0.849808945969669
2.1443245537957654,18.443036295161157,-0.040318658102501605,1.7313597033274075,-0.8216661675030186
2.1371250561733137,18.133941513890868,-0.03967575992474131,1.7030267552313751,-0.7946430540446939
2.130041991817639,17.829894769155445,-0.0390249551383088,1.6752704084955508,-0.7686738516642344
2.1230766070337013,17.53079416142517,-0.038368209127666225,1.6480696773963566,-0.7436978641763796
2.1162298139893814,17.236541480219543,-0.037707269142557495,1.6214045582217051,-0.7196589909124151
2.1095022278528477,16.947042032525843,-0.03704368793003561,1.5952559717083243,-0.6965053127600995
2.1028941999181896,16.662204481217543,-0.03637884467727779,1.5696057094950069,-0.6741887208580833
2.0964058471739397,16.38194069277905,-0.03571396359216491,1.5444363842660396,-0.6526645830461945
2.090037078714101,16.106165593699078,-0.03505013040603926,1.5197313832892174,-0.6318914437896809
2.083787619343381,15.834797034945861,-0.03438830704640957,1.495474825079848,-0.6118307538280997
2.0776605982122187,15.567756460752928,-0.033689705522059354,1.4716426659527315,-0.5912541112204138
2.07165840221809,15.304967946190025,-0.033001361079368956,1.448229718079518,-0.5715455364748983
2.0657791590669743,15.046357288815276,-0.03232356282191775,1.4252220305288041,-0.5526586895178183
2.0600209503101965,14.791852744525627,-0.03165653447561146,1.4026062393561984,-0.5345501703473876
2.0543818224102655,14.541384924704733,-0.031000442190291435,1.3803695364315207,-0.5171793026757054
2.048859796480646,14.294886698805126,-0.030355401472146992,1.35849964023078,-0.5005079356217473
2.0434528768470503,14.052293102023938,-0.029721483345584613,1.3369847684490976,-0.4845002617749598
2.0381590585611122,13.813541247756277,-0.02909871983150232,1.3158136123027087,-0.4691226501213569
2.0329763339825964,13.578570244533122,-0.02848710881867591,1.2949753123990235,-0.45434349247709205
2.027902698533276,13.347321117171486,-0.027886618395992463,1.274459436063582,-0.4401330622106058
2.022936155714151,13.119736731883812,-0.02729719070539944,1.2542559560216844,-0.4264633841556638
2.0180747214674972,12.895761725111203,-0.026718745368531315,1.2343552303406293,-0.4133081147256634
2.0133164279562776,12.675342435861417,-0.02615118253390638,1.214747983545902,-0.4006424313360449
2.0086593268254638,12.458426841347457,-0.02559438558624717,1.195425288831426,-0.38844293032784816
2.0041014920027718,12.244964495736514,-0.02504822355477634,1.1763785512901577,-0.3766875326625773
1.9996410220900542,12.034906471831675,-0.02451255325319561,1.1575994920969421,-0.3653553967276208
1.9952760423910307,11.828205305520687,-0.023987221180399098,1.1390801335807077,-0.3544268376534202
1.9910047066160979,11.62481494283692,-0.023472065207743392,1.1208127851277878,-0.3438832525991915
1.9868251983005751,11.424690689487797,-0.02296691607584278,1.1027900298624882,-0.3337070515139753
1.9827357319688295,11.227789162715226,-0.022471598721333187,1.085004712054975,-0.32388159292475016
1.9787345540732462,11.034068245361361,-0.021985933451812857,1.0674499252101992,-0.3143911243438255
1.9748199437339162,10.8434870420209,-0.021509736985186795,1.0501190007949086,-0.305220726924225
1.9709902133021397,10.6560058371687,-0.021042823367885034,1.033005497562876,-0.2963562640247005
1.9672437087683923,10.471586055158326,-0.020585004784865506,1.0161031914412868,-0.28778433337575504
1.9635788100331908,10.290190221993665,-0.0201360922729271,0.9994060659438383,-0.2794922225649452
1.959997525569051,10.111998153411204,-0.019655957328627717,0.9805058071946098,-0.3190963758129307
1.956498835574076,9.937198901917665,-0.019218375948872008,0.961708098289175,-0.35986411799889706
1.9530752029229808,9.76577423772676,-0.0188219868410766,0.943010392720863,-0.40169568999320443
1.9497193370902075,9.59770638060898,-0.018465411300847275,0.9244102419211512,-0.4444926894638478
1.9464241970199665,9.432977982482601,-0.01814725614627511,0.9059052928163926,-0.4881578547646247
1.9431829934976184,9.271572110413775,-0.017866116324260353,0.8874932857261124,-0.5325948495000432
1.9399891910797675,9.11347222996406,-0.01762057720741519,0.8691720526040715,-0.5777080468186343
1.936836509637318,8.95866218882335,-0.01740921659758075,0.8509395156260348,-0.6234023124588636
1.933718925563079,8.80712620066521,-0.017230606449520278,0.8327936861310965,-0.6695827855361922
1.9306306726932914,8.658848829160021,-0.017083314325895774,0.8147326639265627,-0.7161546560154323
1.927566242990665,8.513814972079349,-0.01696590459217394,0.7967546369698056,-0.7630229377587103
1.9245203870351844,8.372009845422085,-0.016876939357613082,0.7788578814442537,-0.8100922359752997
1.9214881143680658,8.233418967489527,-0.01681497916592759,0.7610407622508217,-0.8572665078244083
1.9184646937338399,8.098028142832291,-0.016778583436580306,0.743301733940695,-0.9044488148346959
1.9154456532656083,7.9658234459867785,-0.016766310654883265,0.7256393421205445,-0.9515410657036856
1.9124267806591146,7.836791204912895,-0.016776718306157627,0.7080522253670628,-0.998443747925059
1.9094041233824135,7.710917984037373,-0.016808362546075328,0.6905391176942868,-1.0450556465606775
1.9063739889696327,7.588190566798669,-0.01685979759593364,0.6730988516246457,-1.0912735483255422
1.903332945449683,7.468595937579362,-0.016929574847951392,0.6557303619231936,-1.1369919289861763
1.9002778219638174,7.352121262900493,-0.017016241661667084,0.6384326900642255,-1.1821026218844355
1.8972057096297381,7.238753871738755,-0.017118339828103277,0.6212049895106482,-1.2264944651878578
1.8941139627145964,7.128481234811858,-0.01723440367346937,0.6040465318993047,-1.2700529252328223
1.8910002001847988,7.021290942659302,-0.017362957768727417,0.5869567142402162,-1.3126596930667045
1.8878623077071404,6.917170682324759,-0.017502514205254168,0.5699350672547048,-1.3541922510090907
1.884698440183568,6.816108212422112,-0.017651569389995136,0.5529812649969498,-1.3945234057399905
1.8815070249109458,6.718091336339036,-0.017808600305806666,0.5360951359261057,-1.4335207840861601
1.8782867654677646,6.623107873299698,-0.01797206017398554,0.5192766756220897,-1.4710462873185195
1.8750366464419534,6.531145626970588,-0.018140373446136716,0.5025260613680136,-1.506955499400587
1.87175593912808,6.442192351250384,-0.01831193004134596,0.4858436688564605,-1.5410970442508585
1.868444208338489,6.356235712834874,-0.018485078731888975,0.46923009131587007,-1.5733118867187725
1.8651013204916644,6.273263250090661,-0.018658119566161643,0.45268616139760687,-1.603432571651829
1.8617274531626347,6.193262327705607,-0.018829295200835934,0.4362129762141132,-1.6312823951923883
1.858323106305007,6.11622008650869,-0.018996780995028637,0.41981192597387257,-1.6566745023493559
1.8548891153827252,6.042123387766313,-0.019158673696988503,0.4034847267192223,-1.6794109050353512
1.8514266666824983,5.970958751165252,-0.019312978527755195,0.3872334577369961,-1.6992814152812357
1.8479373151158112,5.902712285584009,-0.019457594435437417,0.3710606042768198,-1.7160624894383858
1.8444230048635109,5.8373696116345535,-0.019590297256785297,0.35496910627269446,-1.7295159811499154
1.8408860932674254,5.774915774826944,-0.019708720477498616,0.3389624138118537,-1.739387804147136
1.837329378434108,5.715335148073354,-0.019810333226026756,0.323044550116905,-1.7454065111393056
1.8337561310881403,5.658611322112581,-0.01989241506250433,0.30722018278057434,-1.7472818031397312
1.8301701313000822,5.604726982312997,-0.019952027027028398,0.2914947038814615,-1.7447029958685627
1.8265757108227214,5.553663770221416,-0.019985978276981488,0.2758743193583359,-1.7373374883873873
1.8229778019072258,5.5054021282002985,-0.01999078745074798,0.26036614754296084,-1.7248293067841476
1.8193819936516966,5.459921125589222,-0.01996263761068711,0.24497832591345367,-1.7067978368430972
1.8157945971801148,5.41719826512157,-0.019897323184665836,0.22972012372714526,-1.6828369205101597
1.812222721295212,5.377209268953859,-0.01979018664758712,0.21460205591410436,-1.6525145807923056
1.8086743607527356,5.339927844821744,-0.01963604160215141,0.1996359899982663,-1.615373771777182
1.8051585000639778,5.305325434824816,-0.019429077161822583,0.18483523218983552,-1.5709347435234458
1.8016852369106,5.273370952608214,-0.019162735653486973,0.17021457021686778,-1.5186998914169063
1.79826593112295,5.244030519895748,-0.01882955087595682,0.1557902376994123,-1.4581623593788002
1.7949133881870858,5.217267221316785,-0.01842092618920313,0.14157974651128527,-1.388820223386805
1.791642091170428,5.193040908358011,-0.017926818440328902,0.127601508586208,-1.3101988241905504
1.7884685030586576,5.1713081001741585,-0.01733527169045337,0.11387413790102331,-1.221884726150823
1.7854114748526495,5.152022051338928,-0.016631708376303858,0.10041529360152301,-1.123575690797784
1.7824928167306286,5.135133082342868,-0.01579782631281516,0.0872399174658072,-1.0151514583119945
1.7797381254971112,5.120589289104707,-0.014809854059601238,0.07435778518043075,-0.8967687779898258
1.7771780203599792,5.10833773974452,-0.013635758575198664,0.06177054104387789,-0.768978470245972
1.7748500384935704,5.098326179622454,-0.012230706607122352,0.049469015867990324,-0.6328482452712916
1.7728016301549867,5.0905050045785565,-0.010529386043807156,0.037432929064219723,-0.49004879579618943
1.7710951491644038,5.0848286629138215,-0.008431513851555536,0.02563753387729502,-0.3428261072356774
1.7698172867028552,5.081254280748414,-0.005766957943430087,0.014077823516112479,-0.1937619239051426
1.7691035490833609,5.079730255512615,-0.0021634600509517813,0.0028557902149972322,-0.045262944748070105
