x,y,v_x,v_y,omega
2.375,32.48,0.0,3.641025641025641,-7.877551020408164
2.37326374338477,31.832732828807956,-0.019291740169221566,3.5508318166637003,-7.343821373682866
2.36832403992833,31.201338114143773,-0.03559385379122734,3.464665012938314,-6.864565313649631
2.3606787766361346,30.585117738311563,-0.04935351612205359,3.3822280518640278,-6.432577610709532
2.3507519275349997,29.983424203639736,-0.06094480722388521,3.30325566671183,-6.041785177512984
2.338905512852184,29.39565531438513,-0.07068202258518406,3.227509769450447,-5.687042847901081
2.3254494063472877,28.821249629067992,-0.07883027191366142,3.1547756229621933,-5.363970755817369
2.3106494232399393,28.259682539062123,-0.08561398483465447,3.0848587104363734,-5.068823839096918
2.294734024003662,27.710462861761783,-0.09122378445730918,3.0175821484562615,-4.798386387323897
2.277899896501425,27.17312986079701,-0.0958220766786615,2.952784528930091,-4.549886281343472
2.2603166237304944,26.647250623929235,-0.09954762077612213,2.890318102934105,-4.320924836535725
2.2421306021131984,26.132417743070473,-0.10251928608272473,2.830047239941036,-4.1094190984103145
2.223468342493635,25.628247251487117,-0.10483915413464731,2.771847110985159,-3.9135541402725416
2.204439260398747,25.134376781496876,-0.10659509136411102,2.7156025555730747,-3.7317434430499623
2.185138041967032,24.6504639124377,-0.10786289121049938,2.6612071006399804,-3.562595842180587
2.165646655967935,24.17618468381159,-0.10870806433502221,2.608562106316787,-3.4048878380658025
2.1460360695831464,23.711232252601206,-0.1091873399404051,2.557576018243025,-3.25754030830213
2.1263677153856677,23.255315677058015,-0.10934992892046766,2.5081637100146765,-3.1195988487388244
2.106694748692808,22.808158811943287,-0.10923858988908826,2.4602459023712173,-2.990217118903117
2.0870631277709286,22.369499302400456,-0.10889053146512123,2.41374864810467,-2.868642684822197
2.067512543912763,21.939087665450188,-0.10833817807005254,2.3686028735649343,-2.7542049457542874
2.048077223943501,21.516686449605714,-0.10760982158841811,2.3247439691514398,-2.646304806119929
2.0287866240446553,21.102069464365645,-0.10673017728764206,2.2821114224049115,-2.544405814039093
2.0096660307612804,20.695021072401477,-0.1057208591943009,2.2406484883080564,-2.448026536431976
1.9907370825567015,20.29533553815409,-0.10460078752324392,2.200301892218476,-2.356733980028231
1.9720182232025527,19.90281642731689,-0.10338653863396645,2.1610215615281962,-2.2701378997146073
1.953525096562938,19.517276052336307,-0.10209264625063934,2.1227603827004926,-2.187885861891642
1.9352708908875436,19.138534959621392,-0.1007318612537437,2.0854739807985485,-2.109658952051647
1.9172666395191087,18.766421454638678,-0.09931537617331138,2.0491205190093873,-2.035168033537763
1.8995214839049708,18.400771161488347,-0.09785301953933186,2.0136605159942986,-1.9641504791157274
1.8820429039471573,18.041426613923143,-0.09635342443637235,1.9790566791746254,-1.8963673091590632
1.8648369200035817,17.688236875090602,-0.09482417493668989,1.9452737522980261,-1.8316006803733895
1.8479082702420508,17.341057183558874,-0.09327193352476455,1.9122783758322874,-1.769651677435356
1.8312605665307313,16.999748623432332,-0.09170255215656413,1.8800389589070736,-1.7103383669939742
1.8148964316083722,16.664177816580093,-0.09012116920298004,1.848525561673371,-1.6534940794181034
1.7988176199024886,16.33421663519233,-0.08853229419572811,1.8177097870795484,-1.5989658886695786
1.783025124043528,16.009741933049416,-0.0869398820149449,1.7875646811750752,-1.5466132648969124
1.7675192688492025,15.69063529404011,-0.08534739792200463,1.7580646411505576,-1.4963068779105366
1.7522997943184815,15.376782796599837,-0.08375787464156303,1.7291853304080356,-1.4479275327246233
1.737365928973258,15.068074792860397,-0.08217396252758746,1.7009036000301831,-1.4013652209211125
1.7227164547123905,14.764405701410237,-0.08059797370427148,1.6731974160826932,-1.3565182737817154
1.7083497641934877,14.46567381266102,-0.07903192095020542,1.646045792241931,-1.3132926050038516
1.6942639116289038,14.171781105903058,-0.0774775519896174,1.6194287272909953,-1.2716010324169376
1.6804566577709783,13.882633077210343,-0.07593637976510906,1.5933271470725083,-1.2313626694879733
1.666925509765041,13.598138577426429,-0.07440970918974894,1.567722850526536,-1.1925023785848705
1.653667756465001,13.318209659526048,-0.0728986608106956,1.5425984594776827,-1.154950278981598
1.6406804997336328,13.042761434705014,-0.0714041917600635,1.5179373718671456,-1.1186413034654914
1.6279606821864148,12.771711936603126,-0.06992711432013783,1.4937237181538474,-1.0835147981645186
1.6155131934266178,12.504984859673488,-0.06837831634427138,1.46991046995324,-1.0470919703219597
1.6033416269120064,12.242506406737107,-0.06686131159585514,1.4465167848954483,-1.0122035888502243
1.5914402816831301,11.984202318463826,-0.06537585761388014,1.4235286403632108,-0.9787678025242242
1.5798035063463405,11.730000806089429,-0.06392164612823006,1.4009326082412208,-0.9467079522787966
1.5684257100242918,11.479832447278568,-0.0624983130056419,1.3787158229905674,-0.9159521889941514
1.5573013716238793,11.233630087550406,-0.06110544699894227,1.3568659517667812,-0.8864331231967415
1.5464250476243568,10.991328746912803,-0.05974259744019526,1.335371166428804,-0.8580875037005139
1.5357913785646113,10.752865531377278,-0.05840928100142118,1.314220117299241,-0.8308559225191857
1.5253950943876298,10.518179549051023,-0.05710498763170857,1.2934019085480333,-0.8046825436515969
1.5152310187817855,10.287211830524289,-0.05582918576656209,1.2729060750823482,-0.7795148535834893
1.505294072642338,10.059905253291713,-0.054581326893961994,1.2527225608351464,-0.7553034315638637
1.4955792767622333,9.836204469964724,-0.05336084955164659,1.2328416983536474,-0.7320017379055178
1.4860817538486604,9.616055840049178,-0.05216718282138611,1.2132541895968731,-0.7095659187302203
1.4767967299506852,9.39940736507818,-0.05099974937833804,1.193951087858684,-0.6879546257316274
1.4677195353734205,9.18620862690436,-0.049857968146824326,1.1749237807393158,-0.6671288496655967
1.4588456051454926,8.976410728969324,-0.04874125660793265,1.15616397409442,-0.6470517663998389
1.450170479098858,8.769966240380178,-0.047649032799115046,1.1376636768960993,-0.6276885944644812
1.4416898016132162,8.566829142634443,-0.046580717041349425,1.1194151869454179,-0.6090064631435199
1.433399321071212,8.366954778845116,-0.04553573342536562,1.101411077380453,-0.5909742902355523
1.4252948890652926,8.170299805327343,-0.044513511084850736,1.0836441839281263,-0.5735626686917028
1.4173724593923316,7.976822145417142,-0.04351348528138068,1.0661075928518913,-0.5567437614102637
1.4096280868679352,7.786480945400893,-0.04253509832302455,1.0487946295508679,-0.5404912035321029
1.4020579259886146,7.5992365324420845,-0.04157780033609193,1.0316988477692355,-0.5247800116391202
1.3946582294667091,7.415050374398863,-0.040641049907301205,1.014814019377657,-0.5095864993106132
1.3874253466599984,7.233885041432664,-0.039724314611705946,0.9981341246912304,-0.49488819853994437
1.3803638758906716,7.05592558790476,-0.03873647171415021,0.9791931367299241,-0.5298743208696828
1.3734752369520677,6.881366081977269,-0.03780396093700188,0.9603569291310811,-0.5661348863347722
1.366749640949803,6.710187898824838,-0.036924883532606693,0.94162288367373,-0.603563471576007
1.3601776405671757,6.542372875454916,-0.036097342941028655,0.922988487103201,-0.6420552771951252
1.3537501294857592,6.37790329205917,-0.03531944685248895,0.9044513284050727,-0.6815068918707704
1.3474583414605312,6.216761853821637,-0.03458930898337806,0.8860090964563884,-0.7218160583475486
1.341293849099553,6.058931673115726,-0.03390505058304757,0.8676595780537542,-0.7628814402624478
1.3352485623953194,5.904396252022007,-0.033264801686215026,0.8494006563209127,-0.804602388754704
1.329314727052446,5.753139465097988,-0.03266670212349119,0.8312303095015265,-0.8468787077785467
1.32348492265431,5.605145542329687,-0.03210890230024184,0.8131466101462631,-0.8896104170026902
1.317752060709635,5.460399052192905,-0.03158956375170319,0.7951477247068811,-0.9326975111354566
1.3121093826187855,5.31888488474943,-0.031106859479956638,0.7772319135539526,-0.9760397144593762
1.3065504575987485,5.18058823470005,-0.03065897407601073,0.7593975314391619,-1.0195362292933252
1.3010691806054049,5.045494584312017,-0.03024410362780786,0.7416430284278825,-1.0630854770229043
1.2956597702917823,4.913589686133534,-0.029860455412442775,0.723966951333031,-1.1065848302499481
1.2903167670415228,4.784859545401719,-0.029506247368217105,0.7063679456871162,-1.149930334508796
1.285035031117844,4.659290402043233,-0.02917970733932533,0.6888447582960644,-1.1930164178792086
1.2798097409698406,4.536868712158256,-0.02887907208293509,0.6713962404259164,-1.2357355866924866
1.2746363917401131,4.417581128868541,-0.028602586025146943,0.6540213516820128,-1.277978105377332
1.2695107940204624,4.301414482398663,-0.028348499748749336,0.6367191646499654,-1.3196316583242833
1.2644290729058154,4.188355759246079,-0.028115068191772133,0.619488870378739,-1.3605809914612246
1.2593876674007183,4.0783920802801035,-0.02790054853152813,0.6023297847987585,-1.4007075310269617
1.254383330237716,3.971510677591805,-0.027703197724051373,0.5852413561823298,-1.439888976805032
1.2494131281728347,3.867698869896085,-0.027521269663519112,0.5682231737701053,-1.4779988668364428
1.2444744428302914,3.766944036263226,-0.027353011920295878,0.5512749777061128,-1.5149061103697499
1.2395649721766038,3.6692335879295968,-0.027196662009565605,0.5343966704453168,-1.550474485533399
1.2346827327135923,3.574554937905525,-0.027050443135007405,0.5175883298221442,-1.5845620979347663
1.2298260624905277,3.4828954680618764,-0.026912559343488518,0.5008502239961847,-1.6170207961128402
1.2249936250480715,3.394242493335174,-0.026781190017134943,0.4841828285227181,-1.647695539512466
1.220184414420891,3.3085832226433354,-0.026654483618201923,0.4675868458310381,-1.6764237144308909
1.2153977613421834,3.225904716049584,-0.026530550589661337,0.4510632274328725,-1.7030343932466774
1.21063334081211,3.1461938376502516,-0.026407455300042904,0.4346131992263952,-1.7273475322278213
1.2058911812137096,3.0694372035921695,-0.02628320690440503,0.418238290307861,-1.7491731034042624
1.2011716751846695,2.9956211245468225,-0.02615574897381967,0.4019403657515644,-1.7683101564873813
1.1964755924819859,2.924731541881119,-0.02602294772266536,0.3857216638673676,-1.784545807780789
1.1918040951097753,2.856753956668996,-0.02588257863522984,0.36958483848955853,-1.7976541546766542
1.1871587550192946,2.7916733505853024,-0.025732311258999677,0.35353300688479966,-1.8073951169927693
1.1825415747359653,2.7294740976164675,-0.02556969188910405,0.33756980388002367,-1.8135132105428353
1.177955011322784,2.670139865416445,-0.02539212381291193,0.3216994427869002,-1.8157362646174315
1.1734020041557331,2.6136535050405065,-0.025196844709873236,0.30592678361243236,-1.8137741044552147
1.1688860070688396,2.5599969277183448,-0.024980900700053984,0.2902574088560396,-1.8073172337041257
1.1644110255306792,2.5091509673055086,-0.024741116390616328,0.2746977068421487,-1.796035572336445
1.1599816596502248,2.461095227115756,-0.024474060058877825,0.25925496193289477,-1.7795773354168216
1.1556031539933853,2.4158079100443786,-0.0241760027948935,0.24393744997128192,-1.7575681817506614
1.1512814554469968,2.3732656313323943,-0.023842869942757614,0.22875453571742008,-1.729610824821808
1.1470232807339005,2.3334432141274277,-0.02347018242497925,0.21371676655999064,-1.6952853901865605
1.1428361957251136,2.2963134693687586,-0.02305298433932012,0.19883595298078904,-1.6541509357056434
1.138728709517133,2.261846963753669,-0.022585751304909873,0.1841252205202128,-1.605748740130414
1.1347103875142328,2.230011783048262,-0.02206227094953734,0.16959900953986953,-1.5496082329638652
1.1307919897549479,2.200773303363629,-0.021475481931405173,0.15527298695606867,-1.4852568092721619
1.126985643900953,2.1740939909671475,-0.02081724977965067,0.14116381744928075,-1.412235270265259
1.1233050673961773,2.1499332625678598,-0.020078044717855733,0.12728872032059094,-1.3301212579466388
1.1197658614716721,2.128247453432909,-0.019246465554422935,0.11366471451219869,-1.2385637526831825
1.116385912750784,2.108989959800315,-0.018308520233223716,0.10030743696106162,-1.1373322644682222
1.1131859590292004,2.092111641684479,-0.017246521117705124,0.08722943099268952,-1.0263842215696348
1.1101904087380448,2.0775615826305085,-0.016037371006247282,0.07443789182919208,-0.9059520484365012
1.1074285559327033,2.065288281471677,-0.01464988238643518,0.061932121046695335,-0.7766453476995933
1.104936419693525,2.0552412524115695,-0.01304052027110083,0.049701535176700465,-0.6395504591755113
1.1027596034568292,2.04737275584111,-0.011146326803295512,0.03772620449509166,-0.49628779102622506
1.1009579844644541,2.0416388414961872,-0.008871662000870962,0.025983954892929005,-0.34896221879330713
1.0996144663220593,2.037997683668543,-0.0060563173590721265,0.014473354303099175,-0.19993214826783348
1.098857328155045,2.0363987030178876,-0.0023563289410854773,0.003293097370851296,-0.05136169341677077
