x,y,v_x,v_y,omega
2.375,32.48,0.0,3.1794871794871797,-4.326530612244898
2.3740679818633477,31.882906206907716,-0.00981071722791717,3.1057106425368146,-4.054389322449808
2.371407989837629,31.299549367604993,-0.01818919883228251,3.0348876659129247,-3.807811529235039
2.36727315129756,30.729386348706832,-0.02533541737896579,2.9668283224887464,-3.5836788550796523
2.361881474913169,30.17190849996402,-0.03141907087778188,2.901359559014586,-3.3793231470362155
2.355421123521064,29.626638637624648,-0.03658462798648415,2.8383232024524707,-3.19245244178624
2.3480548162668806,29.093128377787007,-0.040955448373340815,2.7775742695226806,-3.021090528480731
2.339923518066342,28.57095576754502,-0.04463716426390833,2.7189795224982376,-2.863527352133987
2.331149542980447,28.059723171353024,-0.04772046821919398,2.662416226891196,-2.7182781128865026
2.3218391734966612,27.55905537756601,-0.0502834210838148,2.607771076130013,-2.584049380744156
2.3120848783236725,27.068597896061743,-0.052393370210805056,2.5549392554938564,-2.459710900335795
2.3019671959358012,26.58801542259942,-0.054108549661526166,2.503823623056932,-2.3442720337002756
2.29155633884134,26.11699044939334,-0.05547941975385623,2.4543339896385854,-2.236862001340577
2.2809135637144773,25.655222004486383,-0.05654979210785349,2.40638648306625,-2.136713247583926
2.270092344602767,25.20242450505181,-0.05735777748909723,2.359902984666102,-2.0431473866230343
2.2591393800016384,24.758326711851595,-0.057936586733307274,2.3148106279677654,-1.9555632886634646
2.248095459364921,24.32267077382415,-0.058315209442667215,2.2710413512684773,-1.8734269475191518
2.2369962103548073,23.89521135323472,-0.05851899066379247,2.2285314970412955,-1.7962628364466906
2.2258727446373414,23.475714823051003,-0.05857012215163837,2.1872214522609985,-1.7236465115500272
2.2147522171515313,23.06395852924795,-0.05848806190952295,2.1470553246132207,-1.6551982644567749
2.203658311403712,22.659730111632364,-0.058289893330676856,2.1079806502877054,-1.5905776602808128
2.1926116613699573,22.262826877536703,-0.05799063334042744,2.0699481296666153,-1.5294788247879325
2.1816302189531034,21.873055223384213,-0.057603497363296556,2.0329113877280105,-1.4716263674578007
2.170729574577089,21.49023009969092,-0.057140127647378254,1.9968267564119109,-1.4167718457967415
2.1599232373611574,21.114174515558886,-0.05661079041506342,1.9616530765568831,-1.3646906915993726
2.149222880360753,20.74471907914051,-0.05602454643129571,1.927351517320754,-1.315179532515568
2.138638555558691,20.381701570925394,-0.055389398853570936,1.8938854112594123,-1.2680538527564198
2.128178882613307,20.024966547027013,-0.05471242162415551,1.8612201034604028,-1.2231459454718194
2.117851214798601,19.674364969932935,-0.053999871162221345,1.8293228133193422,-1.180303116576567
2.107661785087281,19.32975386443494,-0.05325728369377729,1.7981625077121755,-1.1393861058523136
2.097615834916818,18.99099599667867,-0.05248956020583197,1.7677097844590688,-1.10026769622011
2.087717727829217,18.65795957447059,-0.05170104071628545,1.7379367650997195,-1.0628314863340405
2.077971049877391,18.330517967155863,-0.05089556930293895,1.708816996107868,-1.0269708052298276
2.0683786984366592,18.00854944353774,-0.05007655112581375,1.6803253577671675,-0.9925877507872392
2.0589429608421894,17.691936926448598,-0.049247002500184545,1.6524379800132558,-0.9595923363249863
2.049665584086511,17.38056776270848,-0.04840959492801181,1.6251321646195294,-0.9279017318182309
2.0405478366508527,17.074333507318656,-0.047566693868391366,1.5983863131681046,-0.8974395880750649
2.031590563405995,16.77312972083881,-0.046720392919578094,1.5721798603039623,-0.8681354337816178
2.022794234399295,16.47685577898701,-0.04587254399306002,1.5464932118202634,-0.8399241366690935
2.0141589882417077,16.1854146935832,-0.0450247839815426,1.5213076871671796,-0.8127454212060049
2.0056846707196927,15.898712944030802,-0.044178558355457205,1.4966054660159835,-0.7865434362051426
1.997377855314487,15.616661729177391,-0.0432616038046014,1.4723546903357072,-0.7591208422950185
1.9892439671125706,15.3391753237192,-0.04235827200504439,1.4485548408031341,-0.7329059787548488
1.9812803741503817,15.066169532074362,-0.04146902233378499,1.4251903344056724,-0.7078317191393023
1.9734843667683766,14.797563054303652,-0.04059421326627132,1.402246273707078,-0.6838353733199698
1.9658531756072406,14.533277359461259,-0.03973411474568561,1.3797084088444354,-0.6608583475989167
1.9583839873891136,14.273236565928144,-0.03888891912933394,1.3575631020304522,-0.6388458343386111
1.9510739587383121,14.017367328270193,-0.038058750879103036,1.3357972943690115,-0.6177465282488526
1.9439202282662635,13.765598730198313,-0.03724367514246053,1.3143984748086932,-0.5975123667764375
1.9369199271192292,13.517862183239448,-0.03644370535263879,1.293354651074096,-0.5780982923129007
1.9300701881644247,13.274091330756704,-0.03565880996109278,1.2726543224284526,-0.559462034174251
1.9233681539699545,13.03422195698333,-0.03488891840175086,1.2522864541333742,-0.5415639085180234
1.9168109837161902,12.798191900759797,-0.03413392637471779,1.232240453482753,-0.5243666345505544
1.910395859160554,12.565940973685628,-0.03339370052671467,1.2125061472979728,-0.5078351655440543
1.904119989763853,12.337410882418144,-0.0326680825964542,1.193073760780792,-0.4919365333313169
1.8979806170740974,12.112545154869252,-0.031956893085184054,1.1739338976286087,-0.4766397050779844
1.8919750184529691,11.891289070068716,-0.031259934505639665,1.155077521324427,-0.4619154512500639
1.8861005102205652,11.673589591478422,-0.030576994256506087,1.136495937520762,-0.4477362237995756
1.8803544502856089,11.45939530355686,-0.029907847164087308,1.1181807774430306,-0.4340760436852293
1.8747342403208485,11.248656351386618,-0.029252257728127114,1.1001239822437339,-0.4209103969291795
1.8692373275367453,11.041324383190283,-0.028609982104536885,1.0823177882439925,-0.40821613848631216
1.8638612061006756,10.837352495571743,-0.027980769854091692,1.0647547130038029,-0.39597140327014896
1.858603418243662,10.636695181330538,-0.027364365482895704,1.0474275421667838,-0.3841555237401922
1.8534615550920206,10.439308279706918,-0.02676050979753771,1.0303293170292072,-0.3727489535101323
1.8484332572572,10.245148928924397,-0.026168941095311083,1.0134533227868046,-0.36173319648547025
1.8435162152134215,10.054175520905108,-0.025589396207619224,0.9967930774162258,-0.3510907410833647
1.8387129620820923,9.866547588654548,-0.024971163069531423,0.9782377883791349,-0.38267697342537454
1.8340231212812634,9.682434882381589,-0.02439558220235004,0.9597906987046525,-0.415710510936084
1.8294386995407463,9.501817111570247,-0.023861488750461433,0.941448994046313,-0.4500850289807814
1.824951928254709,9.32467451002988,-0.023367682681510106,0.9232099695364967,-0.48569618096512757
1.8205552697490088,9.150987815421196,-0.02291293316796654,0.9050710263443746,-0.5224413667620245
1.8162414227563708,8.980738249400712,-0.022495982544012694,0.8870296686080911,-0.5602195043371213
1.812003327177472,8.813907498313032,-0.02211554986544732,0.8690835007359017,-0.5989308036009252
1.8078341682010057,8.650477694361122,-0.021770334097358398,0.8512302250736667,-0.6384765415067921
1.803727379851367,8.490431397184931,-0.021459016951468013,0.8334676399388848,-0.6787588373977028
1.7996766480287092,8.333751575778422,-0.021180265392301115,0.8157936380243731,-0.7196804275803493
1.7956759131027198,8.180421590674214,-0.02093273382863881,0.7982062051778028,-0.7611444380721964
1.791719372118613,8.030425176323494,-0.02071506600406362,0.7807034195666221,-0.8030541544253327
1.7878014806714395,7.8837464235967225,-0.02052589659776248,0.7632834512415017,-0.8453127874794252
1.7839169545029632,7.74036976232782,-0.020363852544095413,0.7459445621153727,-0.8878232338342146
1.7800607708739844,7.600279943820809,-0.02022755407673537,0.7286851063794689,-0.9304878297588733
1.7762281697641558,7.4634620232334115,-0.020115615500406303,0.7115035313825914,-0.9732080971702425
1.7724146549510331,7.32990134174657,-0.020026645690359533,0.6943983790052031,-1.0158844802133782
1.7686159950203628,7.199583508422307,-0.01995924831669623,0.6773682875659965,-1.0584160708648012
1.7648282243604712,7.072494381644525,-0.01991202178742737,0.6604119943054056,-1.1007003218500557
1.7610476441950973,6.948620050028175,-0.019883558900717753,0.6435283384982727,-1.1426327450212996
1.7572708237111905,6.827946812671453,-0.019872446193039794,0.6267162652566853,-1.1841065931762267
1.7534946013410901,6.710461158613132,-0.019877262965911194,0.609974830094053,-1.225012523115301
1.749716086262231,6.5961497453425615,-0.019896579969448484,0.5933032043329951,-1.2652382375287092
1.745932660182107,6.48499937619291,-0.019928957716067106,0.5767006814528003,-1.3046681030765614
1.7421419794818194,6.376996976428597,-0.01997294439222149,0.5601666844873507,-1.3431827417750006
1.7383419777982068,6.272129567815128,-0.020027073330017783,0.5437007746018012,-1.3806585925270425
1.734530869132449,6.170384241433311,-0.020089859993747565,0.5273026609962786,-1.4169674393413108
1.73070715158231,6.071748128469423,-0.020159798428768427,0.5109722123078132,-1.4519759024671681
1.7268696118059785,5.97620836867792,-0.02023535711156326,0.4947094697080185,-1.4855448883464892
1.7230173303380214,5.883752076172865,-0.020314974130089845,0.478514661924125,-1.517528993949657
1.7191496878924752,5.794366302157773,-0.02039705161250117,0.4623882224452484,-1.5477758607410648
1.715266372804861,5.708037994150086,-0.020479949309754355,0.44633080921460266,-1.5761254732303507
1.7113673897842248,5.62475395119526,-0.020561977223259635,0.430343327151992,-1.602409396844487
1.707453070168555,5.544500774495383,-0.020641387152209516,0.4144269538993554,-1.626449949754485
1.703524083902563,5.467264812797616,-0.02071636301612854,0.39858316923501264,-1.6480593033854023
1.69958145348637,5.393032101797733,-0.020785009785904748,0.38281378865851323,-1.6670385067419402
1.6956265701778317,5.321788296713155,-0.02084534083028712,0.3671210017054803,-1.683176430558505
1.691661212770882,5.253518597068503,-0.020895263453393043,0.35150741560665716,-1.6962486288717729
1.687687569318567,5.18820766261554,-0.02093256236045172,0.3359761049508638,-1.7060161182647067
1.6837082622239075,5.125839519181714,-0.02095488074122675,0.32053066803679053,-1.7122240792522214
1.6797263771865554,5.0663974531125575,-0.020959698599320647,0.30517529058589965,-1.7146004908117325
1.6757454965715342,5.009863892852916,-0.020944307874588786,0.28991481741031094,-1.7128547189885193
1.671769737862908,4.956220276116959,-0.02090578379516056,0.27475483244188015,-1.706676095406359
1.6678037979871727,4.9054469010543755,-0.020840951738893748,0.25970174716425554,-1.6957325436978126
1.6638530044497473,4.857522759873515,-0.020746348655058568,0.24476289684482075,-1.6796693447110094
1.6599233744410569,4.812425353599657,-0.020618177752208183,0.22994664287999117,-1.6581081797749146
1.6560216833651655,4.7701304871344306,-0.020452254625596862,0.21526247780662072,-1.6306466624669436
1.6521555446707774,4.730612044702628,-0.02024394215743565,0.200721126738662,-1.5968586735330264
1.6483335034991178,4.693841747371444,-0.019988070175823814,0.18633463464222214,-1.5562959654881114
1.6445651476338532,4.659788896968713,-0.01967883366906555,0.17211642222862233,-1.508491723175031
1.6408612407578256,4.628420114939782,-0.01930965976280505,0.15808128333906574,-1.4529670807198607
1.637233885444187,4.5996990912012095,-0.01887302774918097,0.14424528233011644,-1.3892420354254515
1.6336967272234737,4.573586367824596,-0.018360216679379638,0.13062549005529425,-1.3168527942383754
1.6302652174425432,4.550039196476703,-0.017760938909364327,0.11723947150147984,-1.2353783421740903
1.6269569630461547,4.529011527706633,-0.017062791578934644,0.104104410288737,-1.1444798547240578
1.6237922084026086,4.5104542136997345,-0.016250415195234253,0.09123573715230866,-1.0439571937685068
1.6207945218734598,4.494315529137069,-0.015304179848437119,0.07864515298100225,-0.9338263597045383
1.6179918044220463,4.480542122711089,-0.01419810911381192,0.06633807255561258,-0.8144187495632725
1.6154178105860524,4.469080470589027,-0.01289656284401867,0.054310897150286856,-0.6864944019824163
1.6131145000792575,4.459878745589307,-0.011348810911716951,0.04254936600465642,-0.5513433158908425
1.6111358067704713,4.452888626075829,-0.009479539707084551,0.0310308394003938,-0.41082062625510396
1.609554172325932,4.448065724206945,-0.007169243919645676,0.019736548693107363,-0.26723376584790826
1.6084742762557735,4.44536510485835,-0.004198083134653123,0.008691023397352953,-0.12300032104514477
