x,y,v_x,v_y,omega
2.375,32.48,0.0,2.2051282051282053,-4.816326530612245
2.373992825655247,31.978146954527226,-0.008758037780460585,2.158811320721981,-4.554905171065718
2.371099893038188,31.48676276349399,-0.016397898020051725,2.114094688262693,-4.31425106955802
2.3665628840253796,31.00549023302247,-0.023054354265240107,2.070883837576585,-4.092182341771485
2.360594525213411,30.533992969199222,-0.02884441801274951,2.029092369582089,-3.886792312568693
2.353382372056296,30.071953631500932,-0.033869957266509286,1.9886410017074054,-3.6964094113697317
2.3450920406265827,29.619072388933798,-0.03821988125273604,1.9494567597459205,-3.519563702441614
2.3358699774820746,29.175065548332892,-0.04197197217777002,1.911472288957606,-3.3549588165920228
2.3258458414646674,28.739664329856893,-0.04519442797359512,1.8746252630076108,-3.2014483064524426
2.3151345580430296,28.31261376912893,-0.04794716699717192,1.8388578737572852,-3.058015644596326
2.303838096243368,27.8936717289885,-0.05028293560857852,1.804116388333399,-2.923757236907457
2.2920470097012133,27.482608006636916,-0.05224825171450444,1.7703507625499526,-2.7978679436090417
2.2798417764667627,27.079203524233385,-0.053884211193764915,1.7375143018285621,-2.6796286950591495
2.2672939665682894,26.683249592847705,-0.05522717922773968,1.7055633623947566,-2.5683958646557388
2.254467261722396,26.294547241187928,-0.05630938464959282,1.6744570868207092,-2.463592121350623
2.2414183477751153,25.912906601766633,-0.057159432283284115,1.6441571690166217,-2.3646985326527172
2.228197697306883,25.538146348200588,-0.05780274570134371,1.6146276446011674,-2.271247728125322
2.2148502572134996,25.170093178197675,-0.05826195076286027,1.5858347032502336,-2.182817965183489
2.2014160538864376,24.80858133750475,-0.05855720860289775,1.557746520166513,-2.09902796497058
2.187930726781145,24.453452180696125,-0.058706505356167754,1.5303331042563313,-2.019532407401816
2.174425999618673,24.104553765195707,-0.058725904752286284,1.5035661609646789,-1.9440179920186613
2.1609300971635013,23.76174047536241,-0.05862976877094547,1.4774189680205054,-1.8721999858199776
2.1474958698952067,23.424878502844884,-0.05818959877944213,1.4518155756101687,-1.7980099803856806
2.134170276067288,23.093839352809738,-0.05768513015898187,1.4267857290432848,-1.727609287159335
2.120967128376805,22.768493734406633,-0.05712484975826038,1.4023066048967474,-1.6607552915369557
2.1078983930420687,22.448717469621876,-0.05651632706553466,1.3783565671446092,-1.5972238680237243
2.094974389305386,22.134391229206678,-0.055866314123009145,1.354915088639715,-1.5368077476076862
2.0822039672770587,21.82540028593879,-0.05518083394940291,1.331962678907155,-1.4793150487238853
2.0695946666011036,21.521634283835198,-0.054465258884987475,1.3094808176457922,-1.4245679534815348
2.0571528581193954,21.222987022064757,-0.05372438008639081,1.2874518934015546,-1.3724015130971323
2.044883870447083,20.929356252426054,-0.05296246923806264,1.2658591469349714,-1.322662568438384
2.0327921031426226,20.640643489360002,-0.05218333340941934,1.2446866188568149,-1.2752087732830235
2.020881127955727,20.35675383155913,-0.05139036386793444,1.2239191011507657,-1.2299077093714097
2.0091537794619785,20.07759579431901,-0.05058657955596403,1.2035420922415918,-1.1866360836143999
1.9976122362402349,19.803081151851472,-0.04977466585050364,1.1835417553022072,-1.1452789989356906
1.9862580936153669,19.533124788846486,-0.048957009148348926,1.1639048795237683,-1.1057292912036387
1.9750924288717606,19.267644560629726,-0.04813572775257434,1.144618844100214,-1.0678869255610965
1.964115859740197,19.00656116131738,-0.047312699478411914,1.1256715847028298,-1.0316584462096878
1.953328596870357,18.749797999418732,-0.046489586346283696,1.1070515622418957,-0.9969564743613992
1.9427304909216587,18.49728108038178,-0.04566785668587647,1.0887477337316191,-0.9636992496475206
1.932321074835044,18.24893889561711,-0.04484880493686114,1.070749525091616,-0.9318102107832328
1.9220996017864895,18.00470231757222,-0.044033569398394395,1.0530468057334765,-0.9012176117344353
1.9120650792683953,17.76450450046149,-0.04322314815025073,1.035629864794622,-0.8718541700294189
1.9022162996966987,17.528280786287308,-0.04241841334276341,1.018489388893914,-0.8436567442083245
1.892551867898805,17.29596861581564,-0.041620124030227655,1.0016164412945117,-0.8165660377137145
1.8830702257995262,17.06750744419429,-0.04082893770262869,0.9850024423693843,-0.7905263268009566
1.873776802791679,16.84296232283505,-0.039983436278651814,0.9675638303196527,-0.7870723006713093
1.864674709245941,16.622412600080807,-0.039165203249504676,0.9502598458042006,-0.7862947000252011
1.855757606523237,16.40582778853863,-0.03837482042618242,0.9330863415190982,-0.7880489502772939
1.8470190413457737,16.19317833411862,-0.037612702856108154,0.9160393490896894,-0.7921953742197243
1.838452482523126,15.984435575884927,-0.036879112993000736,0.8991150703337378,-0.7985988427562777
1.8300513545486001,15.779571707840258,-0.03617417374200808,0.8823098691851166,-0.8071284410668177
1.8218090683147963,15.578559742496346,-0.035497880464981736,0.8656202642401956,-0.8176571487100616
1.8137190491785895,15.381373476091007,-0.034850112023774124,0.8490429218931911,-0.8300615322497371
1.8057747625885612,15.187987455319767,-0.034230640932993966,0.8325746500306197,-0.8442214490555994
1.7979697374721813,14.998376945456496,-0.03363914268770098,0.8162123922586989,-0.8600197609872966
1.7902975875656049,14.812517899743021,-0.03307520432600438,0.799953222641078,-0.877342056716095
1.782752030855753,14.630386929932609,-0.032538332281404236,0.7837943409277227,-0.8960763814773549
1.7753269072922737,14.45196127787612,-0.03202795957493655,0.7677330682591376,-0.9161129730756427
1.7680161949159943,14.277218788042973,-0.03154345239271107,0.7517668433334389,-0.9373440029846231
1.7608140245404562,14.106137880871508,-0.031084116090228563,0.7358932190271222,-0.9596633213954635
1.7537146931140768,13.938697526845058,-0.030649200660895635,0.7201098594637417,-0.9829662050703752
1.7467126758822995,13.774877221190987,-0.03023790570238634,0.7044145375281792,-1.0071491068520042
1.7398026374617717,13.614656959100053,-0.02984938491089877,0.6888051328277718,-1.032109405664464
1.732979441932081,13.458017211362744,-0.029482750129889643,0.6732796301053374,-1.057745155817593
1.726238162044845,13.30493890031762,-0.029137074976509334,0.657836118113142,-1.0839548343921523
1.719574087644994,13.155403376004077,-0.028811398065672886,0.6424727889611499,-1.1106370854397127
1.712982733394869,13.009392392408426,-0.02850472584845757,0.6271879379575587,-1.1376904596763806
1.7064598458882942,12.866888083687364,-0.02821603507828209,0.611979963964709,-1.1650131482837172
1.7000014102390595,12.727872940247028,-0.027944274915062964,0.5968473702990741,-1.1925027093525464
1.6936036562262915,12.592329784548454,-0.02768836867422466,0.5817887662102547,-1.2200557854151972
1.6872630640779929,12.460241746501477,-0.027447215224023765,0.5668028689808517,-1.2475678104083887
1.6809763699736542,12.331592238298537,-0.027219690031093813,0.5518885066968768,-1.2749327042918759
1.6747405713472845,12.206364928527478,-0.02700464585038199,0.5370446217471249,-1.3020425534166293
1.668552932073547,12.084543715387777,-0.026800913051683938,0.5222702751198376,-1.3287872745905034
1.662410987621969,11.966112698817735,-0.026607299570734808,0.5075646515761911,-1.3550542606292029
1.6563125502674887,11.851056151320297,-0.026422590468224122,0.4929270657928473,-1.3807280050066484
1.6502557144500063,11.739358487252392,-0.02624554707510155,0.47835696958021917,-1.4056897030332323
1.6442388623812083,11.631004230316233,-0.026074905697054167,0.46385396029944315,-1.4298168267959834
1.6382606700038753,11.525977978960547,-0.025909375844974217,0.4494177906195506,-1.4529826708963098
1.632320113417281,11.42426436936492,-0.025747637951496975,0.4350483797772247,-1.475055865826584
1.626416475892352,11.325848035640163,-0.02558834052614701,0.42074582652501413,-1.4958998556482994
1.620549355612134,11.230713566832073,-0.025430096693138955,0.406510423980109,-1.5153723364895342
1.6147186742871045,11.138845460263656,-0.025271480046248858,0.3923426766148122,-1.5333246522940043
1.6089246868112066,11.050228070691876,-0.025111019744167157,0.37824331966152885,-1.5496011442657707
1.6031679921435664,10.964845554688313,-0.02494719475705246,0.3642133412390108,-1.5640384506170957
1.5974495456230815,10.882681809578518,-0.02477842716020586,0.3502540075418213,-1.5764647536201593
1.591770672949029,10.803720406192177,-0.024603074353294393,0.33636689146984977,-1.5866989716982514
1.5861330860912084,10.72794451458591,-0.024419420062537587,0.32255390510637444,-1.5945498955286912
1.580538901428902,10.655336821803822,-0.024225663957517865,0.30881733647700826,-1.5998152690968563
1.5749906604603603,10.585879440640454,-0.024019909681975624,0.29515989103053003,-1.602280819665374
1.5694913534754515,10.51955380827151,-0.023800151056361084,0.28158473826464564,-1.6017192451726072
1.5640444466461656,10.45634057352746,-0.02356425615482108,0.2680955638575298,-1.597889174319924
1.5586539130666854,10.396219471517583,-0.02330994888413581,0.25469662753271144,-1.5905341245076778
1.5533242683725546,10.339169184287734,-0.02303478758656809,0.24139282663989362,-1.5793814972111286
1.5480606116959268,10.285167186247225,-0.02273614003628322,0.22818976501668903,-1.5641416713206788
1.5428686728847643,10.234189573278556,-0.02241115397382351,0.215093826015202,-1.54450728522424
1.537754867149712,10.186210874824443,-0.022056721983152734,0.20211224749883308,-1.5201528419963186
1.5327263586374038,10.141203848943618,-0.021669438993440905,0.1892531949431076,-1.4907348346473537
1.5277911349176725,10.099139261508746,-0.021245549873787645,0.1765258262296885,-1.455892677874573
1.5229580951019184,10.059985652632111,-0.020780883306683928,0.1639403379149726,-1.415250859879506
1.5182371554213656,10.023709096397877,-0.020270766089425837,0.15150797716532124,-1.3684229065664715
1.5136393778134472,9.990272964535862,-0.019709908762038913,0.13924099554783875,-1.3150179976092322
1.5091771297557113,9.95963771141928,-0.0190922482617505,0.1271525098137359,-1.2546514062209524
1.5048642878302387,9.931760707442166,-0.018410725003228236,0.11525622042203151,-1.1869603599457306
1.5007165042156265,9.906596161090498,-0.017656958602096432,0.10356592176637366,-1.1116274157095214
1.4967515659175845,9.884095186936438,-0.016820765728704664,0.0920947230515301,-1.0284139065613118
1.492989893249581,9.864206095633023,-0.015889431384366513,0.08085389697816543,-0.9372061699615705
1.4894552501772533,9.84687499671622,-0.014846595331528123,0.06985131099401956,-0.8380764771059028
1.4861757798652455,9.832046800590557,-0.013670537816365205,0.059089524881311285,-0.7313576346977644
1.4831855437636285,9.819666651201874,-0.01233151524117369,0.04856394806375606,-0.6177232296463591
1.4805268560106075,9.80968165932849,-0.010787508698141865,0.03826206822654888,-0.49825256528709905
1.47825394725733,9.802042446542504,-0.008976915243400439,0.02816586904287781,-0.3744413869682119
1.4764391833932997,9.796703270138586,-0.006803640095994367,0.018261751860759158,-0.24810488179565818
1.4751857825568346,9.793617595035926,-0.004095497612396984,0.008570205553681947,-0.12112467697141605
