x,y,v_x,v_y,omega
2.375,32.48,0.0,2.3076923076923075,-2.8571428571428577
2.3743584651109972,31.954922127395307,-0.005578564252199562,2.2582022366963153,-2.6961900417373914
2.372519133611681,31.44102735468048,-0.010415622698374746,2.2104479608239123,-2.5485545065531614
2.3696418490247497,30.937927864417624,-0.01460424327494197,2.1643302153748256,-2.4127899394118058
2.3658665046353837,30.4452577775137,-0.01822483837171699,2.119757496833209,-2.287636855636234
2.361315736320709,29.96267146012387,-0.021347060016757857,2.0766452630783414,-2.171995055355659
2.3560972153795046,29.489842002370484,-0.02403138295023796,2.0349152391250316,-2.0649006199522524
2.35030560666845,29.026459846589482,-0.026330431928498915,1.9944948111445362,-1.9655066216971018
2.3440242456714477,28.572231546398065,-0.028290098480217154,1.9553164948677815,-1.8730668852275019
2.3373265787308224,28.126878640773988,-0.02995048361217457,1.9173174670807323,-1.7869222684006354
2.330277403067301,27.69013662969828,-0.031346696070620635,1.8804391509688831,-1.7064890316222456
2.3229339370361743,27.261754039852754,-0.03250953028700275,1.8446268476878689,-1.6312489452625305
2.315346746020885,26.841491570468275,-0.033466043758992856,1.8098294078293522,-1.5607408489536148
2.3075605452270698,26.42912131075657,-0.034240050100268635,1.7759989374898215,-1.4945534279927788
2.2996148972329893,26.024426021478824,-0.034852541152604354,1.7430905344905891,-1.4323190134882162
2.2915448193366204,25.62719847414941,-0.03532204925060624,1.711062050982557,-1.3737082463837773
2.283381313404639,25.237240842174778,-0.03566495885357669,1.6798738792316399,-1.3184254727154057
2.2751518289855848,24.854364138910952,-0.03589577522515641,1.649488757845101,-1.266204759654041
2.2668806688277003,24.478387698209012,-0.03602735658253498,1.61987159608483,-1.2168064400719312
2.258589344584186,24.109138693522123,-0.03607111510020152,1.5909893142359381,-1.170014108314507
2.2502968893485753,23.74645169208396,-0.03603719129641087,1.5628106982698264,-1.1256320021878414
2.242020132703158,23.390168241046933,-0.03593460562026282,1.5353062672695494,-1.0834827163748797
2.2337739431531576,23.040136482798815,-0.035771390466695266,1.5084481522793147,-1.0434052009655244
2.225571442133756,22.696210796965076,-0.03555470535419145,1.4822099854053583,-1.0052530058417966
2.217440277284544,22.358253363341394,-0.0351510759432986,1.4565503069744783,-0.965382030988711
2.2094049963743303,22.026131836308544,-0.0347209319716064,1.431462971572063,-0.9275479080279385
2.2014712214358485,21.69971716579816,-0.03426841531953821,1.4069254676486525,-0.891620308907407
2.193643676195123,21.378885347615793,-0.0337971954693813,1.38291642958932,-0.8574788210234153
2.185926288612821,21.063517168290005,-0.033310522637589705,1.3594155645479713,-0.825012074479024
2.1783222819246015,20.753497966107492,-0.03281127465127748,1.3364035848651665,-0.7941169563127818
2.170834255529215,20.448717407107225,-0.03230199835208322,1.3138621455719428,-0.7646979020389694
2.1634642569050397,20.149069274915163,-0.03178494620596226,1.2917737865329428,-0.7366662560214747
2.1562138455899635,19.85445127339876,-0.031262108707743146,1.2701218788271036,-0.7099396932269186
2.149084150132969,19.56476484120818,-0.030735243092211175,1.2488905750039925,-0.6844416957914267
2.1420759188156917,19.279914977350458,-0.030205898797156246,1.2280647628892445,-0.6601010786086828
2.1351895648463537,18.999810077014132,-0.029675440066651602,1.2076300226440229,-0.6368515588208491
2.1284252066448395,18.724361776926752,-0.029145066033470723,1.1875725868114606,-0.6146313646823887
2.1217827037646506,18.453484809586005,-0.028615828576867085,1.1678793031080827,-0.5933828797815199
2.1152616889335887,18.187096865758406,-0.028088648214976353,1.1485375997405913,-0.5730523190549541
2.108861596639077,17.925118464687667,-0.027564328259039473,1.1295354530484545,-0.5535894334272796
2.1025816886349755,17.667472831498664,-0.02704356742879712,1.1108613572907269,-0.5349472402541642
2.096421076703683,17.414085781322882,-0.026526971104183575,1.092504296411702,-0.5170817770547208
2.0903787429694565,17.164885609707564,-0.026015061367350302,1.0744537176345315,-0.49995187628831983
2.0844535580255865,16.91980298890391,-0.025508285970649004,1.0566995067450642,-0.48351895916946697
2.0786442971086965,16.67877086966013,-0.02500702635013466,1.0392319649399757,-0.46774684672510397
2.07294965452757,16.44172438817278,-0.02451160479009838,1.0220417871239462,-0.45260158648528537
2.067368256531047,16.20860077787524,-0.024022290831838683,1.0051200415503116,-0.4380512933636331
2.061898672779339,15.97933928576549,-0.023539307009097534,0.988458150708366,-0.4240660034308618
2.056543285485775,15.75398934209618,-0.023029278152332498,0.9711065768508488,-0.4295309710770286
2.051302589765071,15.53261538352923,-0.022541988984223747,0.9538843672095813,-0.4374133324941859
2.0461712796946765,15.31518810396722,-0.022078098584425325,0.9367876289818055,-0.4475817017894896
2.0411439163399248,15.101679074118358,-0.0216381045003705,0.919812630573506,-0.4599089566203544
2.036214963339399,14.892060705300263,-0.021222356373765225,0.9029557939316574,-0.47427193237296694
2.031378819480267,14.68630621494177,-0.020831068488253602,0.8862136874465583,-0.4905511288232763
2.0266298485023846,14.484389593655212,-0.02046433131942012,0.8695830193930739,-0.5086304280351999
2.0219624063520687,14.286285573758462,-0.02012212216158778,0.8530606318830255,-0.5283968223057335
2.017370866090023,14.091969599131929,-0.01980431489968124,0.836643495304224,-0.549740151013184
2.0128496406428593,13.901417796301097,-0.019510688988695395,0.820328703224766,-0.5725528452631581
2.00839320357389,13.714606946639663,-0.01924093769799306,0.8041134677442315,-0.5967296792574742
2.00399610803626,13.531514459592291,-0.018994675672705238,0.7879951152763772,-0.6221675273339466
1.9996530040600125,13.35211834681916,-0.018771445859881962,0.7719710827508364,-0.6487651256400938
1.9953586543142152,13.176397197167027,-0.018570725842701943,0.7560389142242508,-0.676422837411213
1.9911079484757792,13.004330152373406,-0.0183919336219583,0.7401962578942066,-0.7050424208228304
1.9868959163280355,12.83589688341165,-0.018234432880160797,0.7244408635123603,-0.7345267983790957
1.9827177397044289,12.671077567385158,-0.018097537759898325,0.7087705801962645,-0.7647798267819451
1.9785687633858164,12.509852864878681,-0.017980517184556358,0.6931833546426768,-0.7957060662004459
1.9744445050537967,12.352203897673682,-0.017882598746050183,0.6776772297486056,-0.8272105478251776
1.9703406643971992,12.198112226732835,-0.017802972180883815,0.662250343650072,-0.8591985385482375
1.9662531314643552,12.04755983035593,-0.017740792452543615,0.6469009291925998,-0.8915753015548078
1.9621779943499933,11.900529082405818,-0.01769518245495125,0.6316273138518571,-0.9242458515464069
1.9581115463026082,11.757002730498165,-0.017665235348397756,0.616427920127741,-0.9571147032380901
1.9540502923359,11.616963874042806,-0.017650016536022096,0.6013012664406023,-0.990085611680975
1.9499909554264312,11.480395942017235,-0.017648565285444506,0.5862459685643615,-1.0230613028564568
1.9459304823789991,11.347282670343954,-0.017659895996574717,0.5712607416380706,-1.0559431928681824
1.9418660494414162,11.21760807873298,-0.01768299911284175,0.5563444028051802,-1.0886310939210457
1.9377950677514946,11.091356446838457,-0.017716841669085038,0.541495874538506,-1.1210229051219132
1.933715188701069,10.968512289563861,-0.017760367465049914,0.5267141887188564,-1.1530142859632893
1.9296243093049783,10.849060331333327,-0.017812496848782524,0.5119984915466584,-1.1844983101576776
1.925520577667116,10.732985479126882,-0.017872126089149554,0.497348049378951,-1.2153650972762278
1.9214023986410829,10.620272794054411,-0.0179381263111392,0.4827622555990557,-1.2455014194102163
1.9172684397897362,10.510907461216533,-0.018009341961441674,0.46824063864337356,-1.2747902798186304
1.9131176377562,10.404874757569662,-0.018084588764959345,0.45378287132942535,-1.3031104602516188
1.908949205168827,10.302160017476822,-0.018162651125240504,0.43938878165179496,-1.3303360333518601
1.9047626382144027,10.202748595584445,-0.01824227891323096,0.42505836523842433,-1.3563358362410023
1.9005577250277923,10.10662582661778,-0.01832218357903341,0.4107917996891132,-1.3809729011077383
1.8963345550625115,10.013776981632617,-0.018401033510363887,0.3965894610514385,-1.4041038383457436
1.8920935296257004,9.92418722019811,-0.01847744854886329,0.3824519427268823,-1.425578167571049
1.8878353737830584,9.837841537913206,-0.018549993561067516,0.3683800771418346,-1.445237591720563
1.8835611498649427,9.754724708577026,-0.018617170944286568,0.35437496056409706,-1.4629152094573856
1.8792722728345845,9.67482122024025,-0.018677411928393776,0.34043798149482946,-1.4784346613740307
1.8749705278139506,9.598115204259894,-0.018729066511901583,0.32657085311695366,-1.4916092061231665
1.8706580901030518,9.52459035636339,-0.018770391843739364,0.31277565033091065,-1.5022407238089932
1.8663375480756346,9.454229848600828,-0.018799538829453722,0.29905485195222464,-1.5101186460209255
1.8620119293897441,9.387016230928808,-0.018814536700029406,0.28541138867405375,-1.5150188151930897
1.8576847310177937,9.32293132103052,-0.018813275229972955,0.2718486973980201,-1.516702281123713
1.8533599536806213,9.26195608084383,-0.0187934842236995,0.2583707824862237,-1.5149140503570617
1.8490421413681655,9.204070478157426,-0.018752709797655653,0.2449822843520907,-1.5093818159874668
1.8447364267528585,9.149253331570502,-0.018688286857188114,0.2316885555341899,-1.4998147131480153
1.8404485834614566,9.09748213713522,-0.018597306981090307,0.21849574390305254,-1.4859021717132213
1.836185086384015,9.048732875178164,-0.018476580648835002,0.20541088181047118,-1.4673129765458182
1.8319531814926884,9.002979796229464,-0.01832259231922244,0.19244197861298848,-1.443694702734094
1.827760967062905,8.960195185831882,-0.01813144620063607,0.17959811180078705,-1.4146737770575042
1.8236174888089849,8.920349109494992,-0.0178987994856227,0.166889508520006,-1.37985653931606
1.8195328523873155,8.883409141556346,-0.01761977809411249,0.15432760398997825,-1.338831854800554
1.8155183581851306,8.849340085730248,-0.017288867142277252,0.14192505536738545,-1.2911760843041111
1.8115866656384934,8.81810370139608,-0.016899763698046667,0.12969567797320047,-1.2364615780524941
1.8077519980684975,8.789658459169399,-0.016445171693221367,0.11765425443273268,-1.1742703525620135
1.8040304051144305,8.763959363147947,-0.015916506168230662,0.10581614575379292,-1.1042152472517057
1.8004401097889344,8.740957896403025,-0.01530345318390974,0.09419660854989215,-1.0259715964815488
1.797001983421092,8.720602170618594,-0.014593297840807332,0.08280970261907322,-0.9393230954633542
1.7937402181593884,8.702837386551014,-0.013769878347917583,0.07166668057727235,-0.8442255360968557
1.7906833094365484,8.687606726843985,-0.012811936633301997,0.06077383861427707,-0.7408901920555735
1.7878655304015685,8.674852776347556,-0.01169048975782754,0.05013007874596072,-0.6298824758369214
1.785329199484297,8.664519435146921,-0.01036456169670593,0.03972506212913954,-0.5122177103602363
1.7831282793124061,8.656553945204074,-0.00877387458060669,0.029540067808675106,-0.3894125128099267
1.7813344682248737,8.650907893769723,-0.006824482702282018,0.019556031620474944,-0.263423698915254
1.7800492639065988,8.647534233249619,-0.004351207021847769,0.009780146815212205,-0.13639807148517286
1.7794395229896063,8.646368898523992,-0.0009508879085233938,0.00035319862501236726,-0.010223418399226275
