x,y,v_x,v_y,omega
2.375,32.48,0.0,2.0,-4.571428571428571
2.3743772293579983,32.08364977791688,-0.006227706420014914,1.963502220831126,-4.36800839416407
2.3725762379605797,31.694499427670287,-0.011782207554172733,1.9280012816348453,-4.177423611188588
2.3697249877426976,31.31235442103993,-0.016730294624649943,1.8934487846687245,-3.9985829364783774
2.365938805940036,30.937029571144585,-0.021131523401967167,1.859799714284727,-3.830507720057034
2.3613217441453,30.568348388841002,-0.025039094545393766,1.827012108751111,-3.6723184363655097
2.3559677733889623,30.206142500615954,-0.02850061301798028,1.795046773499361,-3.5232230222071568
2.3499618375513625,29.85025112032224,-0.03155874535801648,1.7638670294377738,-3.3825067784222314
2.343380783985923,29.500520568268808,-0.03425179029637899,1.7334384910965488,-3.249523598922403
2.3362941873998833,29.156803832131935,-0.03661417556401935,1.7037288702721676,-3.123688330678263
2.3287650806840117,28.81896016494787,-0.03867689159469609,1.6747078015684764,-3.004470100715455
2.3208506044157864,28.48685471610859,-0.040467871087556395,1.6463466868243635,-2.891386472687051
2.3126025851100422,28.160358191836014,-0.04201232196988664,1.6186185559013646,-2.783998317351446
2.3040680509001996,27.839346542075795,-0.043333020128537236,1.5914979417008364,-2.6819052992325396
2.295289692156391,27.523700671145043,-0.04445056730955253,1.5649607676066617,-2.584741896607236
2.2863062735473867,27.213306169802443,-0.045383618780486384,1.5389842458193608,-2.492173884334756
2.2771530032015335,26.90805306669334,-0.04614908467804955,1.5135467852716504,-2.4038952193740224
2.267861863893655,26.607835597365927,-0.046762308400731104,1.4886279080024742,-2.319625277497724
2.258471080239406,26.312556704979933,-0.047145528141762635,1.464161015857494,-2.2360355749782848
2.249014215554393,26.022122954633346,-0.04742311870836781,1.4401764876083438,-2.1562926402548226
2.2395113954836807,25.736439631822975,-0.04760508199875514,1.416656740495392,-2.080173379590722
2.2299808357602875,25.455415454929454,-0.04770051523517591,1.3935850284397928,-2.0074701159103054
2.2204390145595205,25.17896241301701,-0.04771769677249134,1.3709453906846423,-1.9379893503408843
2.2109008285679184,24.906995613517044,-0.04766416314353377,1.3487226043150458,-1.8715506370812112
2.201379734422313,24.63943313905513,-0.04754677831251852,1.326902140304116,-1.8079855599436427
2.1918878769920056,24.376195912747743,-0.047371795990553384,1.3054701227697356,-1.7471368002501295
2.182436205816399,24.11720757135476,-0.04714491576551249,1.2844132911600759,-1.6888572869266851
2.1730345808688507,23.862394345727253,-0.046871333709972214,1.2637189651149947,-1.6330094206605492
2.1636918686924855,23.611684948038146,-0.046555788053679784,1.2433750117761067,-1.579464364878631
2.1544160298431616,23.365010465326435,-0.04620260043955865,1.223369815340984,-1.528101397091847
2.145214198476885,23.122304258924636,-0.045815713223207225,1.2036922486770028,-1.4788073148420238
2.1360927548321564,22.883501869374122,-0.04539872322407876,1.184331646828142,-1.4314758910984244
2.127057391280642,22.64854092646492,-0.0449549122910667,1.165277782263859,-1.3860073744901937
2.1181131725510123,22.41736106406521,-0.04448727500523014,1.1465208417332455,-1.3423080302382184
2.1092645906697727,22.189903839431864,-0.04399854380716503,1.1280514046002432,-1.3002897180728086
2.1005156151085114,21.966112656717144,-0.043491211805446205,1.109860422546931,-1.2598695037990155
2.091869738578456,21.745932694408253,-0.04296755349510598,1.091939200541974,-1.2209693015051162
2.0833300188698636,21.52931083645602,-0.04242964359082147,1.0742793789803486,-1.1835155437068643
2.074899117094985,21.316195606867126,-0.041879374157962654,1.0568729169085926,-1.147438876984943
2.0665793326586326,21.106537107550555,-0.04131847020556515,1.0397120762571326,-1.1126738809094479
2.058372635249242,20.900286959224054,-0.04074850388834036,1.0227894070078467,-1.07915880825652
2.0502806941154312,20.697398245200173,-0.04017090744976408,1.0060977332309773,-1.0468353447113519
2.0423049048679682,20.497825457883984,-0.03958698502486943,0.9896301399308979,-1.0156483864212222
2.034450204376817,20.301718751573553,-0.03896001988664302,0.9714369231734373,-1.023715640640171
2.0267185674361627,20.109238589564697,-0.03835634951989952,0.9533646969151368,-1.033855581337287
2.01910532127339,19.920361110834946,-0.03777611210783028,0.9354100903823506,-1.045941733255718
2.0116057772415745,19.735063114489815,-0.03721932821031967,0.917569873068957,-1.0598507569827298
2.0042152533940034,19.55332203224595,-0.0366859102653918,0.899840949369687,-1.075462174651156
1.9969290952325482,19.37511590193993,-0.03617567134916071,0.8822203536905041,-1.0926581030424791
1.989742694773135,19.20042334196885,-0.035688333244972024,0.8647052460203238,-1.1113229930058421
1.9826515080618263,19.02922352657168,-0.03522353386811373,0.8472929079513581,-1.1313433741278032
1.9756510712661721,18.86149616186271,-0.03478083408842824,0.8299807391383647,-1.1526076036007904
1.9687370154583945,18.697221462529864,-0.03435972398934638,0.8127662541900897,-1.1750056182439559
1.9619050801996347,18.536380129111926,-0.03395962859825347,0.7956470799892681,-1.1984286886284545
1.9551511260278431,18.37895332576893,-0.033579913119661055,0.778620953440709,-1.222769174249922
1.9484711459459407,18.22492265845983,-0.03321988769936472,0.7616857196502975,-1.247920278673948
1.9418612760015448,18.07427015344068,-0.032878811744593325,0.74483933054122,-1.2737758035553501
1.9353178050448787,17.926978235994813,-0.03255589782206873,0.7280798439174254,-1.300229900398761
1.9288371837473846,17.783029709304238,-0.03225031515287246,0.7114054229883133,-1.327176818886082
1.9224160329600946,17.642407733368113,-0.03196119272002772,0.6948143363729531,-1.3545106505452982
1.9160511514879193,17.505095803870134,-0.03168762200172507,0.6783049586068532,-1.3821250664745717
1.909739523353735,17.3710777308915,-0.03142865934011745,0.6618757711794832,-1.4099130477649358
1.9034783246244675,17.2403376173599,-0.03118332795255579,0.645525364136487,-1.4377666071838642
1.8972649298703124,17.11285983711756,-0.030950619588997013,0.6292524382869114,-1.465576500590042
1.8910969183278068,16.98862901248258,-0.030729495836057337,0.6130558080628961,-1.493231926446508
1.8849720798377243,16.86762999116756,-0.030518889064767914,0.5969344050872658,-1.5206202116847825
1.8788884206296999,16.749847822407492,-0.03031770301547586,0.5808872825134387,-1.5476264820467749
1.8728441690272049,16.63526773213493,-0.03012481300947617,0.564913620212172,-1.5741333148946506
1.8668377811489762,16.523875097024607,-0.02993906577280833,0.5490127308910526,-1.6000203723325925
1.8608679466863807,16.415655417210957,-0.029759278853148708,0.5331840672454745,-1.6251640123305133
1.8549335948404846,16.31059428746098,-0.02958423960581065,0.5174272302542885,-1.6494368753815627
1.8490339005079581,16.208677366560597,-0.029412703719453894,0.5017419787495514,-1.6727074440678786
1.843168290811401,16.109890344644842,-0.02924339324611504,0.48612824040797975,-1.6948395727601442
1.83733645207744,16.014218908170847,-0.029074994093496166,0.470586124331976,-1.7156919845475105
1.8315383373750944,15.921648702196599,-0.02890615292996099,0.45511593541050765,-1.7351177324017775
1.8257741747376754,15.832165289588083,-0.02873547344422756,0.4397181906746525,-1.7529636215470228
1.820044476204042,15.74575410673171,-0.028561511892108572,0.424393637889083,-1.7690695900667603
1.8143500478296744,15.662400415277933,-0.028382771851567814,0.4091432766486809,-1.783268044982872
1.8086920008350704,15.58208924938527,-0.028197698094472298,0.39396838227796843,-1.7953831514513126
1.8030717640788003,15.504805357871614,-0.028004669468227227,0.3788705328585967,-1.8052300734338458
1.7974910980657497,15.43053314061233,-0.02780199066228035,0.36385163973425527,-1.8126141653564574
1.7919521107282956,15.359256578452989,-0.0275878827122579,0.34891398185914047,-1.817330116041759
1.7864572752503947,15.290959155831132,-0.02736047206675269,0.33406024435944504,-1.819161048869568
1.7810094502430895,15.225623775229394,-0.027117778006297107,0.31929356165794937,-1.8178775860502372
1.7756119026267152,15.16323266251803,-0.026857698157448488,0.30461756545570207,-1.8132368906156096
1.7702683336327665,15.103767262197355,-0.026577991782038266,0.29003643775106996,-1.8049817079853958
1.7649829084111088,15.04720812153484,-0.026276260434538037,0.2755549688740635,-1.7928394408004307
1.7597602898219733,14.993534762629732,-0.025949925456815983,0.2611786201770195,-1.7765213076068485
1.7546056771162957,14.94272554156359,-0.025596201599961017,0.24691359048440967,-1.7557216600074812
1.7495248503766057,14.89475749405841,-0.02521206579693909,0.23276688456739172,-1.730117566985862
1.7445242218259491,14.849606167538376,-0.024794219709624546,0.21874638063297216,-1.6993688233141822
1.7396108954486615,14.807245440284493,-0.024339044063251374,0.2048608919058358,-1.6631186068601684
1.7347927368583207,14.767647329637835,-0.023842541840157754,0.19112021456075534,-1.6209951047208637
1.7300784560800866,14.730781793164347,-0.02330026594218233,0.1775351501741444,-1.5726145601870851
1.7254777070212435,14.69661652964109,-0.02270722464624801,0.16411748505842785,-1.5175863734414845
1.7210012090967515,14.665116791050902,-0.02205775459867284,0.1508799008434523,-1.4555211311964797
1.716660899087979,14.636245222952812,-0.021345345489051985,0.13783578013745487,-1.3860427530883657
1.7124701253591645,14.609961759110757,-0.020562391799093433,0.12499885828309813,-1.3088063197654503
1.7084439028318648,14.586223607387296,-0.019699833473904985,0.11238265895149085,-1.223523544208037
1.70459925682496,14.564985377186758,-0.01874662659514306,0.09999964305389546,-1.1299981297402353
1.7009556988011,14.54619941186779,-0.01768895364345431,0.08786001013578867,-1.0281731108275753
1.6975358999144734,14.529816396279003,-0.01650903522281336,0.07597014575208172,-0.9181910597932257
1.6943666633874201,14.515786296113681,-0.01518333004771677,0.06433085590114443,-0.8004646613093082
1.6914803528080222,14.50405962585733,-0.013679775746262416,0.05293584666236222,-0.6757481135505827
1.6889170334518644,14.494588891639168,-0.011953417815316643,0.0417714955192679,-0.5451881016085012
1.6867278043308356,14.48732974428638,-0.009938873394970158,0.030819978008587913,-0.410318611347688
1.6849804359210623,14.482240754241957,-0.007534810702763467,0.020069922435652122,-0.2729545760444163
1.683770903215823,14.479279070978524,-0.004560516349629815,0.00954691019866593,-0.1349482711963085
1.683260301220392,14.478379809066595,-0.0005455036046793692,-0.0005542910793780997,0.0021235894691127855
