x,y,v_x,v_y,omega
2.375,32.48,0.0,2.41025641025641,-4.204081632653061
2.3741882087167876,31.97906989241087,-0.00773134555440224,2.3605065191638586,-3.9775634440775534
2.3718557611600852,31.488409930833825,-0.01448244069990934,2.3124454958556218,-3.7689618812639973
2.368196179003658,31.00767549484326,-0.020370722694636384,2.2659777040545315,-3.5764104090381106
2.3633799299170786,30.53654124492728,-0.025498316225165144,2.221015152288102,-3.398274843063836
2.3575574105662778,30.074699604455947,-0.029954249020555247,2.177476661724594,-3.233120131553116
2.350861501761802,29.62185940403194,-0.0338163110220737,2.135287151837383,-3.0796824897773765
2.3434097639139355,29.177744665633675,-0.037152620862369,2.094377023384182,-2.936845925610175
2.335306328895862,28.742093507832017,-0.0400229507383275,2.054681622345895,-2.803622385629224
2.326643534725587,28.314657156458665,-0.04247985088334179,2.0161407716860196,-2.679134900739128
2.317503341639521,27.895199047600357,-0.04456960707919,1.9786983602978898,-2.5626032278611235
2.3079585617539915,27.483494011819243,-0.04633305849728483,1.9423019804746169,-2.4533315773882327
2.2980739292950907,27.079327530156235,-0.04780629825414882,1.9069026067921293,-2.3506980903649626
2.287907034089803,26.682495053836995,-0.049021275129542574,1.872454310533945,-2.2541457888976937
2.2775091374708083,26.292801380729188,-0.05000631171802917,1.8389140047785404,-2.1631747713109672
2.266925886811305,25.91006008254005,-0.05078655170580926,1.8062412160704024,-2.0773354624688407
2.256197942461772,25.534092977531905,-0.05138434686117455,1.774397879245253,-1.996222761356547
2.2453615288180004,25.164729644197585,-0.051819592603315964,1.7433481525101406,-1.9194709539242154
2.2344489195370913,24.801806971900998,-0.05211001959581553,1.7130582503145126,-1.846749280471554
2.223488865477412,24.44516874496764,-0.052271447639228606,1.6834962919079843,-1.7777580643968347
2.2125069727229403,24.09466525712049,-0.05231800716526381,1.6546321637791306,-1.7122253236544684
2.201526037023834,23.750152953509698,-0.052262332826220455,1.6264373944188975,-1.6499037983267366
2.190566340112295,23.411494097889268,-0.05211573299796668,1.598885040061366,-1.590568337767391
2.179645912610358,23.078556462758577,-0.051888338449052496,1.5719495802309238,-1.5340135991794523
2.168780767613107,22.751213040516532,-0.05158923295333829,1.5456068220742494,-1.4800520165382622
2.157985108489571,22.429341773877567,-0.05122656822319252,1.5198338125825845,-1.428512004699722
2.1472715139799075,22.11282530397497,-0.05080766520217405,1.4946087579183562,-1.3792363685346252
2.1366669179550577,21.8015539470547,-0.0501884874154425,1.4698803556080373,-1.328010954432506
2.1261951359009137,21.495422075600167,-0.049542770243069884,1.4456612772922477,-1.279224962099504
2.1158612927592824,21.1943247109759,-0.04887478348675429,1.4219326715102896,-1.2327325030647756
2.105669665508241,20.898160738582447,-0.048188333189828826,1.3986765893797584,-1.1883980697373482
2.095623775402685,20.60683272404344,-0.04748681067260968,1.3758759300393542,-1.1460956797114414
2.085726470485167,20.32024674043342,-0.04677323616089662,1.3535143900560933,-1.1057081000345568
2.075979999435986,20.038312205749435,-0.04605029764082433,1.3315764164580182,-1.0671261430974224
2.0663860777068184,19.76094172989721,-0.0453203854941088,1.3100471630869872,-1.0302480267645135
2.0569459467730264,19.48805097052351,-0.04458562339914642,1.288912449995836,-0.9949787922028609
2.047660427244107,19.219558497081685,-0.04384789592389932,1.2681587256406137,-0.9612297736016377
2.0385299664876975,18.955385662566997,-0.04310887318476121,1.2477730316421334,-0.9289181146196425
2.029554681348739,18.695456482403806,-0.04237003290055897,1.227742969912074,-0.8979663269642516
2.020734396480364,18.43969752000748,-0.041632680131581834,1.2080566719576598,-0.8683018870039877
2.012068678745826,18.188037778581375,-0.04089796495925393,1.1887027701957573,-0.8398568667563495
2.0035568681002336,17.940408598742973,-0.04016689833210293,1.1696703711223364,-0.8125675959805744
1.9951981053162307,17.696743561604464,-0.03944036627745043,1.1509490301967948,-0.7863743524480784
1.9869913568782955,17.45697839696095,-0.03871914265526323,1.1325287283128667,-0.7612210777670917
1.9789354373353976,17.22105089626552,-0.03800390061043345,1.1143998497388403,-0.7370551164073557
1.9710290293707886,16.98890083009387,-0.03729522286203297,1.0965531614197452,-0.7138269758098994
1.9632707018202626,16.760469869822764,-0.03659361095249879,1.078979793543157,-0.6914901056795356
1.9556589258458226,16.535701513266503,-0.0358994935659774,1.0616712212783996,-0.670000694746998
1.9481920894500349,16.31454101403361,-0.035213234012953364,1.0446192476062979,-0.6493174834563584
1.9408685104970762,16.096935314382797,-0.03453513696760486,1.027815987163324,-0.629401591183937
1.9336864483893141,15.882832981372491,-0.03386545453489158,1.0112538510300626,-0.6102163567294594
1.9266441145329671,15.672184146112393,-0.033204391716032816,0.9949255323994529,-0.5917271909405774
1.9197449442581198,15.465084977383725,-0.03250199185394089,0.9774475031116685,-0.6014023151162405
1.9129900510440465,15.261643646733084,-0.03183032447056787,0.9600889792753863,-0.6131985896133799
1.9063729858589689,15.061835414404886,-0.031189343958742143,0.9428465667074601,-0.626996056142681
1.899887320468964,14.86563623908264,-0.030578897850829706,0.9257170077901332,-0.6426781653498456
1.8935266689054544,14.673022749823943,-0.029998736087355177,0.9086971756260191,-0.6601315148126329
1.8872847070635457,14.483972219175005,-0.029448519549871124,0.8917840686495805,-0.6792455960172007
1.881155190580169,14.298462537370973,-0.028927827910860536,0.8749748056745356,-0.6999125492907765
1.8751319711303711,14.11647218753242,-0.02843616684911726,0.8582666213593183,-0.7220269257013979
1.8692090112703386,13.937980221771781,-0.027972974675002937,0.8416568620753296,-0.7454854549623982
1.8633803979468129,13.762966238126516,-0.027537628406194548,0.8251429821652836,-0.7701868183996086
1.857640354784409,13.591410358238104,-0.02712944933098475,0.8087225405814888,-0.7960314260529784
1.8519832532549065,13.42329320569792,-0.026747708092849466,0.7923931978964537,-0.8229211969914815
1.8464036228258403,13.258595884982313,-0.026391629326827863,0.7761527136807742,-0.850759341920726
1.8408961601796228,13.09729996090001,-0.026060395875243066,0.7599989442459084,-0.8794501471564825
1.8354557375889449,12.939387438475212,-0.02575315260740356,0.7439298407521698,-0.9088987590242026
1.8300774105293276,12.784840743189292,-0.025469009865141116,0.727943447685144,-0.9390109677242543
1.8247564246053876,12.633642701503142,-0.025207046553337283,0.7120379017067626,-0.9696929896747175
1.819488221863633,12.485776521580426,-0.024966312891943447,0.6962114308905227,-1.0008512473077666
1.8142684465614236,12.341225774129768,-0.024745832843384618,0.6804623543538455,-1.0323921452514382
1.809092950459072,12.199974373280654,-0.02454460622662959,0.6647890823043958,-1.0642218417754097
1.8039577976999848,12.062006557403947,-0.024361610526584105,0.649190116521385,-1.0962460143166837
1.79885926934219,11.92730686978296,-0.024195802404791633,0.6336640512975253,-1.1283696178281217
1.7937938676036458,11.79586013903511,-0.02404611891467941,0.618209574872476,-1.1604966346088863
1.7887583198833223,11.667651459177087,-0.023911478421734293,0.6028254713944046,-1.1925298141802858
1.7837495826203102,11.542666169218133,-0.023790781225999945,0.5875106234527864,-1.2243704016625356
1.778764845054063,11.420889832156139,-0.023682909881117018,0.5722640152328942,-1.255917852986835
1.773801532950468,11.302308213239858,-0.02358672920074082,0.5570847363507244,-1.2870695351423378
1.7688573123607405,11.186907257347197,-0.023501085939521337,0.5419719864365079,-1.3177204095086572
1.7639300934832445,11.074673065314073,-0.02342480813186839,0.5269250805456335,-1.3477626961614313
1.759018034702322,10.965591869030547,-0.023356704067393808,0.5119434554879593,-1.3770855168616636
1.7541195468831439,10.85965000510038,-0.023295560877158828,0.49702667718029714,-1.4055745142503007
1.7492332980075858,10.756833886836482,-0.02324014269958603,0.48217444914255775,-1.4331114445702708
1.7443582182432804,10.657129974337547,-0.02318918838903693,0.4673866222758679,-1.4595737410331837
1.7394935055464629,10.560524742360059,-0.023141408723511194,0.45266320608115246,-1.4848340447437658
1.7346386319091336,10.467004645664097,-0.023095483060575808,0.4380043814994319,-1.5087596999021902
1.729793350372627,10.376556081470692,-0.023050055382343303,0.42341051558060755,-1.5312122098381757
1.724957702943085,10.28916534862206,-0.023003729660916326,0.4088821782158826,-1.552046650313837
1.720132029559865,10.204818602983377,-0.022955064464986623,0.3944201612001553,-1.5711110364978929
1.7153169782858675,10.123501808565297,-0.022902566715941458,0.38002549992441675,-1.5882456401099083
1.7105135169095043,10.045200683779697,-0.02284468448752036,0.36569949803368296,-1.603282253528602
1.7057229461720558,9.969900642166856,-0.02277979872627317,0.35144375542194395,-1.6160433982515865
1.7009469148620382,9.897586726850736,-0.022706213750084445,0.3372601999696742,-1.6263414761263437
1.6961874370507082,9.82824353789086,-0.02262214635782049,0.3231511234577405,-1.6339778634453903
1.6914469117810507,9.761855151606472,-0.022525713353203688,0.3091192221078537,-1.6387419506005398
1.6867281455679204,9.698405030854747,-0.022414917248036084,0.29516764219429914,-1.64041013393371
1.682034378121537,9.63787592515575,-0.022287629860377176,0.2813000311294849,-1.6387447722939186
1.677369311773234,9.580249759483152,-0.022141573456795065,0.2675205943238411,-1.6334931294553883
1.6727371451657083,9.525507510497143,-0.021974298995831493,0.2538341579238751,-1.6243863361782829
1.6681426118767662,9.473629069010375,-0.0217831608988548,0.24024623718818244,-1.6111384240322968
1.6635910247861716,9.424593087588018,-0.021565287582997614,0.2267631096914193,-1.5934455096304054
1.6590883271860006,9.378376812448817,-0.021317546704345738,0.21339189163429498,-1.5709852461672589
1.6546411519017075,9.334955899345353,-0.021036503622255474,0.20014061411297074,-1.5434167141299315
1.650256890075036,9.294304213991648,-0.020718370917471446,0.18701829401754128,-1.5103810017653134
1.6459437718269059,9.256393619071211,-0.02035894573138863,0.1740349909390023,-1.4715028379980022
1.6417109618746646,9.221193752180152,-0.01995353000424008,0.1612018365948901,-1.4263937988279394
1.6375686744949913,9.188671802633085,-0.019496825992648324,0.14853101623430964,-1.3746578288485094
1.633528314277617,9.158792300412227,-0.018982795125204347,0.1360356715833808,-1.3159001200897564
1.6296026523500557,9.13151693832464,-0.01840446132775875,0.123729681631712,-1.2497407844537696
1.625806052877838,9.106804459326547,-0.01775362888383993,0.1116272612072785,-1.1758352376272247
1.6221547727738752,9.084610655363651,-0.0170204673443766,0.09974230034412554,-1.0939037203310096
1.6186673704142651,9.064888541263247,-0.016192888461432683,0.08808735775495169,-1.0037727253318103
1.615365279403035,9.047588783665844,-0.015255597359805867,0.07667223841080092,-0.9054308120885627
1.6122736351567952,9.032660470931116,-0.014188633556765865,0.06550216858661316,-0.799099420362868
1.6094224922872895,9.020052283640833,-0.012965108057574115,0.05457580560657183,-0.6853141899317807
1.6068486546433527,9.009714025192292,-0.01154763140849019,0.04388379866525846,-0.5650018547401856
1.604598502373646,9.001598228205836,-0.009882390207764805,0.03340950596766554,-0.43952119419436536
1.6027326069889836,8.9956610455847,-0.00788804202711501,0.023135090424113925,-0.31061847832592127
1.6013343046423292,8.991860509968664,-0.005429123179115,0.013060486871459099,-0.1802421580226746
1.6005312874426267,8.990146054585693,-0.002218659675194437,0.0032676596330026234,-0.050192850568929026
