x,y,v_x,v_y,omega
2.375,32.48,0.0,2.8205128205128203,-5.551020408163265
2.373848373190731,31.922171576127695,-0.01151626809269119,2.757771418210212,-5.222032262191231
2.370552013653765,31.376652173525517,-0.021447327276969873,2.6974226078115335,-4.922005661715183
2.3654071373005716,30.842978450738194,-0.030001436254963234,2.6393146200617323,-4.647604983902235
2.358671293401412,30.32071603856942,-0.037357002736635184,2.5833095016260166,-4.395952661735795
2.3505688587724682,29.80945694981964,-0.04366734355279768,2.5292813858717436,-4.164556906586169
2.341295664669686,29.30881730677407,-0.049064597475026096,2.4771150445839525,-3.9512523076733754
2.331022908999807,28.818435335802754,-0.053662959223766536,2.4267046651292485,-3.7541507443922315
2.319900476501689,28.33796958827171,-0.05756136575741264,2.3779528101811405,-3.5716006138958107
2.308059766149155,27.86709735459837,-0.0608457377679278,2.3307695265522708,-3.402152804895888
2.2956161065868343,27.405513244262565,-0.06359085785527564,2.285071576805782,-3.2445321760239243
2.2826708257663566,26.95292790930695,-0.06586195034950153,2.2407817727503643,-3.0976135494074284
2.2693130292376287,26.509066892621988,-0.06771601493778036,2.197828394099289,-2.9604014261551237
2.2556211321213073,26.07366958533107,-0.06920295622543138,2.1561446788098544,-2.8320127839054674
2.24166418215371,25.64648828003535,-0.07036654345054154,2.115668374147386,-2.7116624375579765
2.2275030049796154,25.22728730866987,-0.07124522829040418,2.0763413395073984,-2.59865054026974
2.2131911977828054,24.815842255358437,-0.0718728436776951,2.03810919360693,-2.4923518783823484
2.1987759931641806,24.411939236006177,-0.07227920250855248,2.0009209999156887,-2.3922066754006512
2.1842990117270262,24.01537423749356,-0.07249061186299341,1.9647289852104741,-2.2977126697178667
2.169796918969841,23.625952510276896,-0.07253031570885723,1.9294882869561691,-2.208418270963368
2.1553019997090748,23.24348800899283,-0.0724188768988069,1.8951567258844726,-2.1239166325675245
2.140842661269337,22.86780287633548,-0.07217450749856644,1.8616946006890325,-2.0438405048929047
2.1264438750167542,22.498726966045865,-0.07181335502726342,1.8290645022071095,-1.9678577552483278
2.1121275644152955,22.13609740134192,-0.07134975098732638,1.7972311448323475,-1.895667459207507
2.0979129466101485,21.779758165537135,-0.07079642706414188,1.7661612132154965,-1.8269964826305094
2.083816833549079,21.429559721958412,-0.07016470354655115,1.7358232225717287,-1.7615964862174318
2.0698538978116474,21.08535866058786,-0.06946465382776582,1.7061873911337844,-1.699241294776068
2.0560369076020852,20.747017369126787,-0.0687052482678562,1.6772255234769473,-1.6397245820336723
2.0423769347539236,20.41440372641902,-0.06789448021376085,1.6489109036007177,-1.582857829069383
2.0288835390760807,20.08739081638017,-0.0670394765646685,1.6212181967877604,-1.5284685205332116
2.015564931926964,19.76585666076368,-0.06614659492649994,1.5941233593771404,-1.476398547948643
2.002428121523481,19.449683969257055,-0.06522150910832689,1.5676035556891326,-1.4265027937311232
1.989479042165939,19.138759905545584,-0.06426928446709575,1.5416370814255842,-1.3786478732268603
1.9767226692794573,18.83297586810852,-0.06329444439771943,1.5162032929450322,-1.332711015194564
1.9641631219309383,18.532227284626295,-0.062301029087470414,1.491282541877255,-1.2885790638068577
1.9518171744890929,18.23641689831406,-0.061158445330984794,1.4668213212450418,-1.2422277906038934
1.9396993013706845,17.945450898930282,-0.060020285853098716,1.4428386725927471,-1.1979981208388872
1.927808420391386,17.65923528701018,-0.058888523939888644,1.419317446608303,-1.155767767159085
1.9161430812895006,17.377679413987146,-0.057764867078963555,1.3962412836220586,-1.1154228276242149
1.9047015159090304,17.10069582885658,-0.05665078672573788,1.3735945676835792,-1.0768571192829313
1.8934816827625374,16.82820013370449,-0.05554754473919298,1.3513623838373188,-1.039971571792526
1.8824813066010546,16.560110847487152,-0.054456216875635066,1.3295304783360387,-1.0046736750449448
1.8716979135453833,16.296349277498013,-0.05337771368107723,1.3080852215553662,-0.9708769754312021
1.8611288622691506,16.036839398003,-0.0523127990812507,1.2870135733947792,-0.9385006159643947
1.8507713716678236,15.781507735566532,-0.051262106932017784,1.2663030509699087,-0.9074689159992873
1.8406225453984844,15.53028326062768,-0.050226155761376304,1.2459416984186213,-0.8777109867429879
1.8306793936316788,15.283097284919904,-0.049205361906680116,1.2259180586591225,-0.8491603791543948
1.8209388523183496,15.03988336435874,-0.04820005122661133,1.20622114695251,-0.8217547611866328
1.811397800241052,14.80057720704999,-0.04721046954636267,1.1868404261349943,-0.7954356216424565
1.8020530740888132,14.565116586096838,-0.046236791976025045,1.1677657833965247,-0.7701479981926207
1.7929014817686126,14.33344125690789,-0.045279131225982365,1.1489875084929806,-0.7458402273558903
1.7839398141431246,14.105492878729741,-0.04433754502889835,1.1304962732885036,-0.7224637144604837
1.7751648553636965,13.881214940147583,-0.04341204276538344,1.1122831125330794,-0.6999727218036188
1.7665733919492146,13.660552688315452,-0.042502591379434095,1.094339405788217,-0.6783241734013379
1.758162220745266,13.44345306169457,-0.04160912066005139,1.076656860420593,-0.6574774748774441
1.7499281558835702,13.22986462609352,-0.04073152795690638,1.0592274955899241,-0.6373943471803691
1.7418680348488413,13.019737513818214,-0.039869682390382605,1.042043627163132,-0.6180386729420431
1.7339787237488364,12.813023365752684,-0.03902342860966809,1.0250978534921713,-0.5993763544050235
1.7262571218732015,12.609675276203696,-0.03819259014668145,1.0083830419977153,-0.5813751819447406
1.7187001656176926,12.409647740353392,-0.03737697240840602,0.9918923165053067,-0.5640047123040282
1.7113117045994284,12.213077857658075,-0.03650763777423698,0.9738065104478775,-0.5834294650381593
1.7040928197948424,12.020113667114842,-0.035681210271623,0.9558353949844497,-0.6046711427793648
1.697035019966716,11.830732543836135,-0.03489678800964259,0.9379758378026345,-0.6276135971698993
1.6901300001391553,11.644912476822725,-0.03415341026596406,0.9202248323314621,-0.6521434707989404
1.6833696527419215,11.462632044289581,-0.03345006370637259,0.9025794929999724,-0.6781499406464394
1.6767460775656704,11.283870389896986,-0.03278568805613843,0.8850370509259763,-0.7055244681048163
1.6702515906338729,11.108607199802247,-0.032159181261837755,0.8675948500214161,-0.7341605545331679
1.6638787320898158,10.936822680449751,-0.03156940417872978,0.8502503435035452,-0.763953501315025
1.6576202731903948,10.768497537019002,-0.03101518481548045,0.8330010908039389,-0.7948001733995733
1.651469222492359,10.603612952451588,-0.03049532216487811,0.8158447548701824,-0.8265987653075808
1.6454188313112528,10.442150566978771,-0.030008589646184396,0.7987790998579813,-0.8592485685769282
1.6394625985284463,10.284092458071527,-0.029553738181879296,0.7818019892144528,-0.8926497396083971
1.6335942748173817,10.129421120734431,-0.029129498928768274,0.7649113841565115,-0.9267030668499419
1.6278078663564353,9.97811944806362,-0.028734585680696853,0.7481053425516178,-0.961309736226685
1.6220976380926215,9.830170711987282,-0.02836769695743895,0.7313820182117419,-0.9963710936838693
1.6164581166177112,9.68555854410458,-0.028027517791664118,0.7147396606152889,-1.03178840366043
1.6108840927162231,9.544266916535456,-0.027712721223218936,0.6981766150759676,-1.0674626022511007
1.605370623643176,9.406280122689633,-0.027421969507251173,0.6816913233822561,-1.1032940437443246
1.5999130351884574,9.271582757857779,-0.027153915039932718,0.6652823249362924,-1.1391822391409279
1.5945069235841975,9.140159699521472,-0.026907201002666546,0.6489482584267803,-1.1750255851636986
1.5891481573116648,9.011996087271097,-0.026680461722660306,0.6326878640769722,-1.210721082159807
1.583832878864941,8.887077302211793,-0.02647232274457708,0.616499986516062,-1.2461640391755069
1.5785575065300241,8.765388945727132,-0.026281400604591536,0.6003835783305521,-1.281247764344942
1.5733187362401109,8.646916817457928,-0.02610630229454192,0.584337704361479,-1.3158632385813576
1.5681135435706643,8.531646892339381,-0.025945624399924826,0.5683615468239791,-1.3498987703891
1.5629391859415542,8.41956529652321,-0.02579795189117421,0.552454411337734,-1.3832396294282636
1.5577932050981436,8.310658281992378,-0.025661856542935093,0.5366157339705773,-1.4157676562611607
1.5526734299487686,8.204912199654,-0.025535894950814163,0.5208450894132042,-1.4473608454922344
1.547577979842759,8.102313470670602,-0.025418606109281545,0.5051422004207698,-1.4778928992832732
1.5425052683810394,8.002848555760778,-0.02530850850791545,0.48950694867745814,-1.507232747988431
1.5374540078606564,7.906503922166717,-0.025204096695913454,0.47393938726313933,-1.5352440344160947
1.5324232144654042,7.813266007947675,-0.025103837256609102,0.45843975492727157,-1.561784557998705
1.5274122143272961,7.723121183214502,-0.025006164124472038,0.4430084924044649,-1.5867056749547865
1.5224206505981952,7.636055707870181,-0.0249094731665387,0.42764626103874603,-1.6098516503857165
1.517448491687724,7.552055685364358,-0.024812115938172247,0.4123539640194974,-1.631058958201365
1.5124960408429904,7.471107011905314,-0.02471239250916509,0.3971327705709621,-1.650155524869112
1.507563947268069,7.393195320500386,-0.024608543240048013,0.38198414347830556,-1.6669599133100739
1.5026532190071173,7.318305919115062,-0.024498739369468437,0.36690987037494016,-1.6812804439400575
1.497765237845089,7.246423722152027,-0.024381072250815,0.3519120992554035,-1.6929142510366333
1.4929017765151387,7.177533174355389,-0.024253541048686652,0.33699337871097146,-1.7016462745458594
1.4880650185431166,7.1116181661438915,-0.02411403867153448,0.32215670340400215,-1.7072481904643415
1.4832575811086515,7.048661939274478,-0.023960335673117686,0.307405565290123,-1.7094772875352944
1.4784825413615286,6.988646981640795,-0.023790061798111158,0.2927440110467129,-1.7080753048866026
1.4737434667047453,6.931554909931734,-0.02360068476972125,0.278176706043907,-1.702767255429545
1.4690444496468582,6.877366338831521,-0.023389485809148472,0.2637090049582053,-1.6932602747899417
1.4643901479437762,6.826060735464239,-0.023153531221672435,0.24934702871463701,-1.6792425573620955
1.459785830906057,6.777616257917263,-0.022889639155518927,0.2350977467551125,-1.6603824727831764
1.4552374329610367,6.732009576989263,-0.022594340294685794,0.2209690625248901,-1.6363280020528101
1.4507516158599623,6.689215680903253,-0.02226383071605771,0.20696989833520565,-1.6067066988334555
1.4463358413572314,6.649207663760453,-0.02189391431125073,0.19311027309277792,-1.5711264768296336
1.4419984568401016,6.611956500215694,-0.021479930860048024,0.17940136235479903,-1.5291776604957381
1.4377487973797076,6.577430811561602,-0.021016663743892293,0.16585552418612357,-1.480436929510215
1.4335973092137988,6.545596632580374,-0.0204982179151951,0.1524862656261657,-1.4244740571188437
1.4295557020921605,6.516417194775755,-0.019917853301188025,0.13930811242002245,-1.3608627095845252
1.4256371417560123,6.489852750682903,-0.019267750060295033,0.1263363285084899,-1.289197052570507
1.4218564999445262,6.465860476607837,-0.018538668054565128,0.11358641224217791,-1.2091164853292302
1.4182306890841927,6.444394507658259,-0.017719440548770417,0.10107327725359093,-1.120341400294631
1.4147791243272274,6.425406178047467,-0.01679620702088134,0.08881001885432808,-1.0227231636313148
1.4115243800919488,6.408844556259609,-0.01575123533190618,0.0768061990242529,-0.9163108709728721
1.408493146791277,6.394657365281663,-0.0145610976748115,0.06506571075521674,-0.8014345283392358
1.4057176551075365,6.382792333643504,-0.013193819162592824,0.053584605626363135,-0.6787969650868892
1.4032378417036329,6.373198879528033,-0.011604314876442945,0.042349935528345886,-0.5495525900014024
1.401104752053354,6.365829698650579,-0.00972658162634622,0.03134187324621088,-0.41533029819889233
1.399386291332644,6.360641139089477,-0.0074580255807556485,0.02054372236481728,-0.2781390212773803
1.3981787962382175,6.35758953808385,-0.004616925363508862,0.00997228769145614,-0.1400966850227169
1.3976427670734215,6.35661183688655,-0.000743366284451848,-0.0001952757184608099,-0.003014009669036144
