x,y,v_x,v_y,omega
2.375,32.48,0.0,3.3846153846153846,-3.224489795918368
2.3741644993140203,31.811614595584352,-0.00835500685979829,3.2992386595410466,-2.999634577710173
2.3717926937440357,31.15992550630523,-0.015363048840048027,3.2176522332501882,-2.798378623724036
2.3681331093869287,30.524201014939116,-0.02123279473102143,3.13959268041096,-2.6175310110723
2.363396032671966,29.90375962177355,-0.026137972418608112,3.064821251244714,-2.45440842235151
2.3577598582297865,29.297965407259753,-0.030223772003184442,2.9931208938932223,-2.30674373701066
2.351376284173115,28.706223945092386,-0.03361196856352988,2.9242937277804555,-2.172612876327995
2.344374583065058,28.12797868389297,-0.03640504251703586,2.8581588842137142,-2.050375911607627
2.3368651277830153,27.5627077305739,-0.03868951030339632,2.7945506489769563,-1.938629391855415
2.328942313814137,27.009920980128737,-0.040538629385384425,2.733316855474713,-1.8361675516632483
2.3206869903920135,26.46915754583938,-0.042014604835849664,2.6743174874188482,-1.7419505888133346
2.3121684902194586,25.939983451294065,-0.04317039688970077,2.617423458034293,-1.6550786011870111
2.3034463297797747,25.421989551596585,-0.044051207507140484,2.562515538940522,-1.5747700774889961
2.2945716382720147,24.914789656032276,-0.04469570757045709,2.5094834167025657,-1.5003440703026372
2.2855883621535074,24.418018828475063,-0.04513705361461585,2.4582248588695608,-1.4312053607237183
2.276534283483925,23.931331845151018,-0.04540373308120684,2.4086449743708975,-1.3668320642496414
2.267441883243455,23.454401792154187,-0.04552026932349484,2.36065555559739,-1.3067652373350733
2.2583390751630175,22.986918787445504,-0.045507811480880844,2.3141744914894646,-1.250600130234775
2.24924983106399,22.528588814038002,-0.0453846295093938,2.2691252425855675,-1.1979787998279074
2.240194715031409,22.07913265274672,-0.04516653081641631,2.2254363703272584,-1.1485838501316712
2.2311913407612245,21.638284904310915,-0.04486721188543049,2.1830411140307726,-1.1021331112678776
2.222254763990355,21.205793091921535,-0.04449855582326451,2.1418770098630016,-1.0583751021186754
2.2133978199291002,20.781416836241444,-0.04407088478928116,2.101885546937934,-1.0170851496249493
2.2046314139828516,20.364927095917132,-0.04359317467320651,2.0630118563051867,-0.9780620600571129
2.1959647727057385,19.95610546737089,-0.04307323809792016,2.0252044291572444,-0.9411252557227415
2.187405660818497,19.554743538349776,-0.04251788077449991,1.9884148610538863,-0.9061123053278373
2.1789605692029315,19.160642290307873,-0.041933035381151215,1.9525976193651418,-0.8728767882526877
2.1706348780210694,18.773611545223424,-0.04132387643747214,1.9177098314793333,-0.8412864428706713
2.162432998470244,18.393469452913525,-0.04069491907078081,1.8837110916196735,-0.8112215571495776
2.1543584961533586,18.02004201531465,-0.04005010409807492,1.8505632843690811,-0.7825735664642697
2.146414198597898,17.65316264455528,-0.03939287145652673,1.8182304232246342,-0.7552438290834484
2.1386022890830496,17.292671751963255,-0.0387262236919591,1.7866785026956138,-0.7291425543853327
2.1309243886192326,16.938416365431024,-0.038052780946211506,1.7558753626266848,-0.7041878626788151
2.1233816276585333,16.59024977281095,-0.03737482866078002,1.725790563574064,-0.6803049586963718
2.1159747088896967,16.24803118923449,-0.036694359027584986,1.6963952721905409,-0.6574254034946228
2.108703962280771,15.911625446446685,-0.03601310706167825,1.667662155687501,-0.6354864717387583
2.1015693933706174,15.580902702423852,-0.035332582039853254,1.639565284540819,-0.6144305832320395
2.0945707256727175,15.255738169700326,-0.03465409493914449,1.6120800426944488,-0.5942047991416155
2.0877074379371474,14.93601186097165,-0.033978782416560015,1.5851830445923218,-0.5747603747164611
2.0809787969161735,14.621608350668712,-0.03330762779317986,1.5588520584370718,-0.556052361432952
2.074383886192897,14.312416551311575,-0.03264147943958535,1.533065935134296,-0.5380392524719311
2.0679216315585895,14.008329503554695,-0.031981066903489834,1.507804542434501,-0.5206826662557292
2.0615908233609614,13.709244178928003,-0.03132701507279144,1.4830487038324087,-0.5039470634773765
2.0553968190376675,13.415061982513514,-0.030613028160146067,1.4587732603124959,-0.4859129286173879
2.0493441480301313,13.125687846901954,-0.029913681915215748,1.4349680958031013,-0.4686977566488584
2.0434298816187164,12.84102938280942,-0.029228982198930623,1.4116165451222338,-0.45225471315345595
2.0376510950219124,12.560997458569638,-0.028558883769112885,1.3887026972755914,-0.4365401491168408
2.0320048768660373,12.285506053580455,-0.027903297789636152,1.366211352616231,-0.42151334990020767
2.026488337247552,12.014472120029541,-0.02726209839521455,1.3441279828929176,-0.40713630662783945
2.0210986145650436,11.74781545234411,-0.02663512842987094,1.3224386939614081,-0.3933735077587245
2.0158328812758697,11.485458563852674,-0.02602220446187113,1.3011301909529402,-0.3801917488549489
2.010688348713211,11.227326570186158,-0.025423121164715904,1.2801897457122249,-0.3675599587750096
2.005662271082503,10.973347078981586,-0.024837655142360634,1.2596051663335037,-0.3554490407101773
2.000751948741574,10.723450085484444,-0.02426556826693275,1.2393647686379239,-0.3438317266498175
1.995954730856018,10.477567873675774,-0.023706610588627223,1.2194573494487608,-0.3326824440099594
1.9912680175101554,10.235634922577592,-0.023160522869997244,1.1998721615330479,-0.3219771932908112
1.986689261344119,9.99758781741538,-0.02262703879036684,1.1805988900890654,-0.31169343574545394
1.9822159687790382,9.763365165339568,-0.022105886860440696,1.161627630669035,-0.3018099901454241
1.977845700884768,9.53290751542913,-0.02159679208226081,1.1429488684353417,-0.29230693782090406
1.973576073938006,9.30615728271992,-0.021099477385361907,1.1245534586567776,-0.28316553523514587
1.9694047597128472,9.083058676018368,-0.020613664866224013,1.1064326083587306,-0.2743681334257665
1.9653294855407408,8.863557629277693,-0.020139076854839327,1.0885778590480206,-0.26589810371070693
1.961348034172323,8.647601736328966,-0.019675436829339327,1.0709810704392573,-0.25773976911486807
1.9574582434696777,8.435140188773516,-0.019222470197113428,1.0536344051152382,-0.2498783410255111
1.9536580059541018,8.226123716856087,-0.01877990495864636,1.0365303140590565,-0.24229986063115017
1.9499452682314002,8.020504533150152,-0.018347472268367745,1.0196615230003032,-0.2349911447404779
1.9463180303140526,7.818236278897917,-0.01792490690510961,1.0030210195220626,-0.22793973561539377
1.9427743448572141,7.619273972857776,-0.01751194766327581,0.9866020408793551,-0.22113385448592518
1.9393157584811864,7.423749633525013,-0.017073916097001398,0.9686413524482637,-0.2494435268340791
1.9359412218788625,7.2318065235038915,-0.016671449926238112,0.9507897477629477,-0.27931777121907675
1.9326436926224286,7.043423117120074,-0.016303842638099,0.9330443160752322,-0.31065202391519264
1.9294162754157689,6.858578459723372,-0.01597032942849855,0.9154022578917862,-0.34334397565201435
1.9262522331640226,6.67725214583232,-0.01567009308896456,0.8978608810187366,-0.37729334690654776
1.9231449969172125,6.499424298033073,-0.015402269379137188,0.8804175969737349,-0.4124016675898733
1.9200881747872824,6.325075546560079,-0.01516595192016194,0.8630699177562161,-0.44857206022411383
1.9170755599311806,6.154187009487558,-0.014960196640856618,0.8458154529690094,-0.4857090257066427
1.9141011376865578,5.986740273461965,-0.014784025805372443,0.828651907286916,-0.5237182307528743
1.9111590919412154,5.822717374906233,-0.014636431648050357,0.8115770782704067,-0.5625062960963999
1.9082438108125834,5.66210078162667,-0.014516379638269208,0.7945888545252298,-0.6019805845053408
1.9053498917092297,5.5048733747529965,-0.014422811395267675,0.7776852142115005,-0.6420489876461889
1.9024721458426859,5.3510184309409645,-0.014354647270170523,0.7608642239088123,-0.682619710790606
1.8996056022546952,5.200519604765372,-0.014310788609735984,0.7441240378470988,-0.7236010543160603
1.896745511422358,5.053360911229017,-0.01429011971363763,0.7274628975164492,-0.7649011908971154
1.8938873485015568,4.909526708310082,-0.01429150949437258,0.7108791316728849,-0.8064279372198557
1.891026816267508,4.769001679466662,-0.014313812846118537,0.6943711567613181,-0.848088518976404
1.8881598478102948,4.63177081601237,-0.014355871726012751,0.6779374777816,-0.8897893278087606
1.8852826090428572,4.497819399271329,-0.014416515948362078,0.6615766896288185,-0.9314356687700821
1.8823915010791032,4.367132982413953,-0.014494563689177124,0.6452874789449321,-0.9729314967557642
1.8794831625406743,4.239697371866907,-0.014588821695113606,0.6290686265255249,-1.0141791402248885
1.8765544718524274,4.115498608181046,-0.014698085187354838,0.6129190103330993,-1.055079010383249
1.8736025495889788,3.9945229462300347,-0.014821137447129547,0.5968376091770183,-1.0955292938307026
1.8706247609377287,3.876756834599316,-0.014956749065372235,0.5808235071301726,-1.1354256264864102
1.867618718347748,3.7621868940099112,-0.015103676834434867,0.564875898763871,-1.1746607463940721
1.864582284438837,3.6507998946039635,-0.015260662254676483,0.5489940952955947,-1.2131241227741625
1.8615135752510583,3.5425827318984666,-0.015426429623109646,0.5331775317593748,-1.2507015584303722
1.8584109639222497,3.4375224011899306,-0.01559968366497607,0.5174257753259828,-1.2872747623325753
1.855273084889547,3.335605970165311,-0.015779106662052098,0.5017385349202115,-1.3227208888892232
1.852098838720989,3.2368205494427222,-0.01596335502352538,0.4861156723056624,-1.3569120400903192
1.8488873976950069,3.1411532607287462,-0.016151055236296025,0.4705572148340924,-1.3897147263526235
1.8456382122592399,3.0485912022366435,-0.016340799121373654,0.4550633700869506,-1.4209892815397107
1.8423510185159553,2.959121410960776,-0.01653113831147216,0.43963454267172775,-1.4505892272745542
1.8390258468996366,2.872730821346046,-0.016720577851714036,0.4242713534755774,-1.4783605813329739
1.8356630322334389,2.7894062198261196,-0.016907568810263146,0.4089746617236746,-1.5041411046356765
1.832263225375577,2.709134194629744,-0.017090499768356044,0.39374559024009714,-1.5277594811947917
1.8288274066948271,2.631901080169296,-0.017267687039144792,0.3785855543643897,-1.5490344253924462
1.8253569016467726,2.5576928952292057,-0.017437363441400688,0.3634962950365264,-1.5677737112846344
1.8218533987599685,2.4864952740630777,-0.017597665426638927,0.34847991662476513,-1.583773119396374
1.8183189703847598,2.418293389387479,-0.01774661832544847,0.33353893013120567,-1.5968152979432169
1.8147560966083098,2.353071866128129,-0.017882119439050687,0.3186763024623006,-1.6066685379306704
1.811167692799124,2.2908146846333644,-0.018001918652804903,0.3038955124853511,-1.6130854656617064
1.8075571413152864,2.2315050719258664,-0.018103596185572734,0.2892006145896218,-1.6158016625784597
1.8039283279960987,2.175125379426497,-0.018184537006304343,0.27459631040407084,-1.6145342321863434
1.8002856841617783,2.1216569454712406,-0.01824190133690058,0.2600880291485038,-1.6089803486872818
1.7966342349778843,2.0710799408822,-0.018272590502037743,0.24568201674192058,-1.5988158442820404
1.79297965521214,2.0233731958926633,-0.01827320715540588,0.231385433153444,-1.5836939254188378
1.7893283336402785,1.9785140069381022,-0.01824000856320999,0.21720645639216876,-1.5632441577525908
1.7856874476754148,1.9364779223248156,-0.018168851085428903,0.20315438974068575,-1.5370719328282705
1.7820650502530553,1.8972385067543236,-0.01805512313816593,0.18923976596423697,-1.5047587375407754
1.7784701716856994,1.860767086386403,-0.017893662535390917,0.17547443771498078,-1.4658637060394133
1.7749129402483117,1.8270324789748678,-0.017678651838488286,0.16187163640035948,-1.4199271649498448
1.7714047269060806,1.79600071820337,-0.017403481583820254,0.14844597131463316,-1.3664772158134264
1.767958322248122,1.767634788519448,-0.01706056499576605,0.1352133255245845,-1.3050408686847086
1.7645881580156821,1.7418943976050763,-0.016641077328633822,0.12219058361913786,-1.2351618809495533
1.7613105927304986,1.7187358293569375,-0.01613457552320177,0.10939509886224386,-1.1564282709613776
1.7581442926869235,1.6981119417466815,-0.015528424912549367,0.09684377724031099,-1.0685133783040992
1.7551107589779646,1.6799724003054806,-0.014806912177037989,0.08455163717169129,-0.9712349966666483
1.752235083115425,1.6642642632852542,-0.013949846448360715,0.0725297330305884,-0.8646366245399482
1.7495470660867827,1.6509330409340919,-0.0129303238380617,0.060782490481021,-0.749091322398862
1.7470829228876785,1.6399242969708894,-0.011711108152978373,0.04930494915100494,-0.6254185774584203
1.7448879519604081,1.6311856627570123,-0.010238601119727618,0.03808139298775122,-0.49498376779182396
1.7430208962643337,1.6246686495279867,-0.008431955841015738,0.027088739302497382,-0.35971822323940705
1.741561777606751,1.6203285677513364,-0.006159230734812105,0.016312078464008353,-0.22196979616375756
1.740629720466433,1.6181176887122035,-0.0031613406683692062,0.0057967119273292424,-0.0841028475636065
