x,y,v_x,v_y,omega
2.375,32.48,0.0,3.7948717948717947,-7.877551020408164
2.3731806500917876,31.805650559626425,-0.020214998980140036,3.69789976483457,-7.32327887249665
2.368014710107507,31.14835148112861,-0.03718433417853259,3.6054233295855656,-6.827889859763598
2.360041082102116,30.50732430956824,-0.05141153254803182,3.517100798863028,-6.38330175374669
2.3497157032972593,29.881848710994724,-0.06331489861704517,3.4326280741760375,-5.982747100939203
2.337425443753258,29.27125621834934,-0.07324354076074678,3.3517329552171033,-5.6205282563559855
2.323499421785254,28.674924902116775,-0.08149003666152178,3.274170558478058,-5.291823828662459
2.3082182712837076,28.092274789046282,-0.08830052446677042,3.199719586749649,-4.992534503295347
2.2918217719830443,27.522763893012886,-0.09388280109615382,3.1281792580658627,-4.71915932742787
2.274515162184097,26.965884752105925,-0.09841286333659525,3.0593667520114725,-4.468695770917171
2.256474384503778,26.421161388428406,-0.10204022200028204,2.993115066627655,-4.238558495534751
2.237850462727168,25.88814662400597,-0.1048922421842729,2.929271204732732,-4.026512953801518
2.218773167451977,25.366419699129786,-0.10707770531785178,2.8676946272248536,-3.8306208225177008
2.1993540968691665,24.855584149444773,-0.10868974560225851,2.8082559248308603,-3.6491949398334724
2.1796892744975214,24.35526590589395,-0.10980828074935531,2.7508356701782746,-3.4807619179658755
2.159861346361167,23.86511158778235,-0.11050203187680244,2.6953234199506357,-3.324030988555141
2.1399414447662592,23.384786964124466,-0.11083020806661796,2.641616842914725,-3.1778679343550587
2.1199907735974226,22.913975562378496,-0.11084391603157083,2.5896209542627275,-3.0412731913482176
2.1000619602370287,22.452377406864287,-0.11058734352836051,2.539247440339601,-2.9133633854954235
2.0802002112933926,21.999707871772713,-0.11009875584537358,2.4904140606778955,-2.7933557100242936
2.0604443029097252,21.555696635824553,-0.10941133730648768,2.4430441165238905,-2.680554661281843
2.0408274312063814,21.12008672742116,-0.10855390384177298,2.3970659768471108,-2.5743407403769853
2.0213779441446755,20.692633650619516,-0.10755150795496021,2.35241265428228,-2.474160799169005
2.0021199726032366,20.27310458351692,-0.10642595361658237,2.3090214246355005,-2.379519766471972
1.9830739755792948,19.861277641689917,-0.10519623553832787,2.2668334845533655,-2.2899735366060505
1.9642572120498283,19.456941200232663,-0.1038789147890776,2.22579364274949,-2.2051228399267626
1.9456841500576263,19.059893268709423,-0.10248844067983248,2.185850040842025,-2.124607945485698
1.9273668219500746,18.669940913997202,-0.10103742718185385,2.146953900404878,-2.048104070915776
1.9093151333337115,18.286899726564172,-0.09953689077773799,2.109059293295488,-1.9753173950876373
1.8915371321667624,17.91059332622371,-0.0979964555216962,2.072122932709626,-1.90598158591749
1.874039243455631,17.540852903833077,-0.09642453015753996,2.0361039827418277,-1.8398547696084093
1.8568264742177538,17.177516795780488,-0.09482846137443045,2.0009638845091877,-1.776716879124817
1.839902592696259,16.820430088432538,-0.09321466664217826,1.9666661971347188,-1.7163673292723605
1.8232702852401976,16.469444250002216,-0.09158874953628277,1.9331764520910535,-1.6586229737352376
1.8069312937802227,16.124416787551688,-0.08995560001899337,1.9004620195814816,-1.6033163060944962
1.790886536419118,15.785210927068466,-0.08831948177105943,1.8684919857876376,-1.5502938724441944
1.775136213307594,15.451695314752502,-0.08668410835698294,1.8372370399452789,-1.4994148679244876
1.759679899678481,15.123743737828214,-0.08505270974427295,1.806669370324597,-1.4505498934541052
1.7445166276586517,14.801234863352732,-0.08342809047605385,1.7767625682918813,-1.4035798522938865
1.7296449582609492,14.484051993631912,-0.08181268060953056,1.7474915397172446,-1.3583949689102206
1.7150630447723767,14.172082836981033,-0.08020858037460801,1.7188324230702792,-1.314893915016433
1.700768688595116,13.865219292679502,-0.07861759937273163,1.6907625136134163,-1.2729830297206977
1.686759388459599,13.563357249069654,-0.07704129102190092,1.6632601931626916,-1.2325756224582842
1.6730323838105337,13.266396393840537,-0.07548098285660462,1.636304864938609,-1.1935913488814254
1.6595846930646765,12.974240035619154,-0.07393780320847286,1.60987689307677,-1.1559556511613664
1.6464131473508874,12.686794936065375,-0.07241270472251929,1.5839575464096591,-1.119599255257211
1.6335144202665814,12.403971151733376,-0.0709064851031022,1.5585289461681102,-1.0844577186525544
1.6208850541184567,12.12568188502268,-0.06941980543161702,1.5335740172840895,-1.050471022876681
1.6085214830578283,11.85184334359657,-0.06795320635314271,1.509076443006016,-1.0175832058316807
1.5964200534708817,11.58237460769524,-0.06650712239070834,1.4850206225643132,-0.9857420295565182
1.5845846086598243,11.31719999856778,-0.06499781995437447,1.461363923296366,-0.9527196127931304
1.5730178357740972,11.05624632259579,-0.06352187877592701,1.438121365281307,-0.9210815580060636
1.5617137724255445,10.799440274725601,-0.06207882509687885,1.415279166609686,-0.8907543556344274
1.5506665453405395,10.546710978368239,-0.06066814251428887,1.392824126249875,-0.8616691375517038
1.5398703773438527,10.29798988363141,-0.05928927967112087,1.370743593048246,-0.8337613369543785
1.5293195930453733,10.05321067095415,-0.057941656978648774,1.3490254366990744,-0.80697037652065
1.51900862339347,9.81230915980279,-0.05662467248694258,1.327658020538274,-0.7812393822160779
1.5089320092391674,9.57522322211188,-0.05533770700531026,1.3066301760273893,-0.7565149203912972
1.4990844040380908,9.341892700176924,-0.054080128562208424,1.2859311788054417,-0.7327467560552642
1.4894605758019923,9.112259328726765,-0.052851296283329185,1.2655507261963246,-0.7098876304195186
1.4800554083983521,8.88626666092292,-0.05165056375711831,1.2454789160686173,-0.6878930559977888
1.4708639022848282,8.663859998050974,-0.05047728194870205,1.225706226953017,-0.6667211277136769
1.46188117475501,8.444986322685487,-0.049330801715945345,1.2062234993301553,-0.6463323486195333
1.453102459762825,8.229594235125013,-0.04821047597499944,1.1870219180084627,-0.626689468964052
1.4445231073849352,8.017633892907629,-0.047115661557109556,1.1680929955180204,-0.6077573374664198
1.4361385829733764,7.809056953230321,-0.04604572079354294,1.1494285564520716,-0.5895027637626471
1.4279444660444516,7.603816518107255,-0.04500002286117981,1.1310207226930917,-0.571894391086393
1.4199364489443695,7.401867082113018,-0.04397794491750976,1.1128618994650978,-0.5549025783334222
1.412110335327255,7.203164482566915,-0.04297887305042933,1.094944762158256,-0.5384992907368749
1.4044620384768405,7.007665852023845,-0.042002203065286826,1.0772622438758452,-0.522657998450763
1.396987579499353,6.81532957294586,-0.04104734112901934,1.0598075236573135,-0.507353582402371
1.3896830854117375,6.626115234436593,-0.040113704288930935,1.0425740153345238,-0.4925622468312813
1.3825447871463865,6.439983590928161,-0.03920072088163417,1.025555356981389,-0.4782614379842333
1.3755690174909097,6.256896522717042,-0.038307830845885744,1.0087454009199313,-0.46442976848154266
1.3687522089791484,6.076816998251893,-0.03743448595146386,0.9921382042484165,-0.4510469469128713
1.3620987580130497,5.899932645456349,-0.03649274700518898,0.9732434934798312,-0.4877857448891452
1.355609863371415,5.7264400497118935,-0.03560608234630601,0.954452014791897,-0.5257353490047931
1.3492757852533113,5.556320859758667,-0.034772563410403315,0.9357612069106174,-0.5647912387636904
1.3430871304970562,5.389557176153101,-0.033990267214652974,0.9171686109290096,-0.6048503940422278
1.3370348514135935,5.226131533070468,-0.03325727815715508,0.8986718677669264,-0.6458110627818698
1.3311102443202887,5.066026880531325,-0.03257168954623214,0.8802687160013377,-0.6875725300608606
1.3253049478223464,4.909226566985094,-0.031931604875347956,0.8619569900678876,-0.7300348875128776
1.3196109408864345,4.755714322183607,-0.03133513885700579,0.84373461883754,-0.7730988020383049
1.3140205407489012,4.60547424027645,-0.030780418226697845,0.8255996245753008,-0.8166652827230464
1.3085264006991844,4.458490763058446,-0.030265582325710756,0.8075501222914115,-0.8606354448399279
1.303121507777632,4.314748663297301,-0.029788783469315173,0.7895843194990954,-0.9049102697581797
1.2977991804259834,4.174233028066656,-0.029348187104558304,0.7717005163969595,-0.9493903595265494
1.2925530661282172,4.036929242006057,-0.028941971759510025,0.75389710649859,-0.9939756848245137
1.2873771390793591,3.9028229704248716,-0.02856832878335795,0.7361725777367852,-1.0385653248929314
1.2822656979201812,3.7719001421617797,-0.028225461874174865,0.7185255140753535,-1.0830571979593577
1.277213363576544,3.644146932104917,-0.02791158638846034,0.700954597667549,-1.1273477805630354
1.272215077243454,3.5195497432701934,-0.02762492842365092,0.6834586116071478,-1.171331814059165
1.267266098555776,3.3980951883262094,-0.02736372366166091,0.6660364433260095,-1.2149019964402388
1.2623620039899963,3.2797700704437887,-0.02712621595811365,0.6486870887008731,-1.2579486574528167
1.2574986855445278,3.164561363335906,-0.026910655658202803,0.6314096569422809,-1.300359414809991
1.2526723497498469,3.0524561903395906,-0.026715297616028925,0.614203376350098,-1.3420188091019536
1.2478795170643289,2.9434418023750837,-0.0265383988897265,0.5970676010333282,-1.3828079147888959
1.243117021717084,2.8375055545984473,-0.026378216079660722,0.5800018187070732,-1.4226039244217707
1.238382012065493,2.734634881542096,-0.026233002271351103,0.563005659696823,-1.4612797029779236
1.2336719515426082,2.6348172705123716,-0.02610100353847972,0.546078907300115,-1.4987033089222117
1.2289846202782617,2.538040232984315,-0.025980454954259855,0.5292215096782998,-1.5347374783138445
1.2243181174877475,2.4442912737003333,-0.025869576051453506,0.5124335934770605,-1.5692390679814898
1.2196708647335106,2.3535578571410554,-0.025766565662289593,0.4957154794038068,-1.6020584534950262
1.2150416101785697,2.2658273709926036,-0.025669596059276156,0.47906770002344323,-1.6330388773884896
1.210429433965676,2.1810870861840534,-0.025576806306209652,0.46249102007155235,-1.6620157428607218
1.2058337548737401,2.0993241130112885,-0.025486294715300548,0.4459864596258467,-1.6888158480358704
1.20125433842318,2.0205253527979217,-0.02539611029092229,0.4295553205226838,-1.7132565558610058
1.1966913066249623,1.9446774444699422,-0.02530424302260802,0.4131992164548842,-1.7351448949341746
1.1921451495947206,1.8717667053375173,-0.025208612868965828,0.39692010723870635,-1.754276587111613
1.1876167392840753,1.801779065285018,-0.02510705724931529,0.38072033778907244,-1.770434998809164
1.1831073456169505,1.7346999934690253,-0.02499731682984862,0.36460268238862353,-1.7833900147383375
1.1786186553603877,1.6705144165156938,-0.024877019354183735,0.3485703948706347,-1.7928968357607458
1.1741527941085699,1.6092066270961496,-0.02474366122156858,0.3326272653465332,-1.798694707124734
1.1697123518176344,1.5507601816480125,-0.024594586455490567,0.3167776840772287,-1.8005055903158755
1.165300412400443,1.4951577859124292,-0.024426962624414524,0.3010267129848253,-1.79803280219651
1.1609205879794595,1.4423811668863245,-0.024237753164290384,0.2853801650829976,-1.7909596606059135
1.156577058509353,1.3924109297756608,-0.024023685392447074,0.26984469170217124,-1.7789481984296394
1.1522746176299858,1.3452263986198254,-0.023781213267189003,0.2544278766960161,-1.7616380416398454
1.1480187258126313,1.300805439505762,-0.023506473592306832,0.23913833568246284,-1.7386455957527986
1.1438155721457164,1.2591242658037132,-0.023195233817859248,0.22398581656251104,-1.709563756442807
1.139672146516589,1.220157225787304,-0.022842828727998414,0.2089812947309343,-1.673962463519866
1.135596324556877,1.1838765745768782,-0.022444081935470445,0.1941370520515874,-1.6313905668790485
1.1315969686521903,1.150252234900428,-0.021993205894381203,0.17946672213117928,-1.5813796870426953
1.1276840497712297,1.119251555177243,-0.021483670560735888,0.16498527479308647,-1.5234510555104828
1.1238687971711894,1.0908390795457805,-0.020908024995267394,0.15070889888981112,-1.4571267386932223
1.1201638867192558,1.0649763535004872,-0.020257646692883886,0.1366547238356615,-1.3819472065584235
1.1165836844990473,1.0416218016510683,-0.01952237797610046,0.12284029671342865,-1.2974978988312211
1.1131445719303965,1.0207307313113674,-0.018689983897796733,0.10928270706103929,-1.203448180858959
1.109865393997726,1.002255536320149,-0.017745326465206573,0.0959972372858445,-1.0996065787916751
1.106768096727037,0.9861461951066097,-0.016669087653561853,0.08299544286458546,-0.9859957163313399
1.1038786590612317,0.9723511625071737,-0.015435775299829127,0.07028269712915301,-0.8629474218212239
1.101228487010231,0.9608187167477027,-0.014010580822401825,0.05785558908719557,-0.7312103941492096
1.0988565457118642,0.9514986847160003,-0.012344322492784427,0.04570032237616133,-0.5920463818096912
1.0968127260652596,0.9443441347656574,-0.010364784691710807,0.03379467707211124,-0.44726553010303294
1.0951635493522254,0.9393119219332036,-0.007959401008669376,0.022118798844040412,-0.2991268951682362
1.0940036481049997,0.936359237425151,-0.004928390627170172,0.010688806800975009,-0.15002967912282822
1.0934913014549756,0.935424444543056,-0.0007643499286540401,-0.00030221922213268144,-0.0020209548402299327
