x,y,v_x,v_y,omega
2.375,32.48,0.0,3.641025641025641,-4.6938775510204085
2.37394903563971,31.83266840825891,-0.011677381781003011,3.551547600541974,-4.376358691584671
2.370960106176789,31.201093920500142,-0.02153294558478628,3.465946707888814,-4.091140084087251
2.36633655758082,30.584602647185893,-0.029839816592643037,3.3839563289361645,-3.8339798614732845
2.360336564839385,29.982566422153113,-0.036826769423306496,3.3053350603169473,-3.6012932003971865
2.3531804031634715,29.394398545222725,-0.0426861380868387,3.2298635722429134,-3.390036718139325
2.3450564346853864,28.819550047516604,-0.04758017833633173,3.157341957825107,-3.19761552707785
2.3361260594115447,28.257506397333447,-0.05164621359524232,3.087587488654418,-3.021808057696695
2.326527826540209,27.707784580373637,-0.05500081830848579,3.0204326997879165,-2.8607049135599505
2.3163808617512895,27.16993050038736,-0.057743234901730944,2.955723744504059,-2.7126588790546373
2.3057877346711275,26.64351665590016,-0.059958177100069246,2.893318972020366,-2.5762438446692024
2.2948368661909653,26.128140056224552,-0.06171813934617881,2.833087691041967,-2.4502209024847508
2.283604556041109,25.6234203459859,-0.0630853067633342,2.7749090893875,-2.3335102371934013
2.272156695779961,25.128998112234648,-0.06411314058275425,2.718671285626415,-2.225167724660251
2.260550220237301,24.644533352150038,-0.06484769878013244,2.6642704930914562,-2.1243653721387807
2.2488343407651032,24.16970408256155,-0.06532873979984394,2.611610280113964,-2.0303749073877704
2.237051595870968,23.704205075172737,-0.06559064791277464,2.560600913095073,-1.9425539597132042
2.225238748535083,23.24774670358255,-0.06566321137483601,2.5111587712403205,-1.8603343830266008
2.213427554429244,22.800053890049348,-0.06557227869003945,2.463205823573024,-1.783212355883498
2.201645421123009,22.360865141501097,-0.06534031360146139,2.4166691602964385,-1.7107399610762837
2.1899159749876236,21.9299316656154,-0.06498686568059923,2.3714805717668646,-1.6425180014671499
2.178259549743596,21.507016558917265,-0.06452897036414806,2.3275761693235597,-1.5781898522473405
2.16669360832477,21.09189405980471,-0.06398148984502852,2.284896043038143,-1.51743618492695
2.155233107856836,20.684348860239716,-0.06335740424313192,2.243383952128491,-1.4599704268251013
2.1438908159968313,20.28417547055618,-0.06266806086802942,2.2029870443552184,-1.405534842992756
2.132677585592594,19.891177632455967,-0.06192338806793896,2.163655601202704,-1.3538971464174872
2.12160259354937,19.505167775802587,-0.061132079078997356,2.125342806057088,-1.304847557864312
2.110673548896197,19.125966515292532,-0.06030175040069723,2.0880045329434918,-1.2581962494581314
2.0998968742959563,18.753402183496057,-0.05943907849087178,2.0515991536840334,-1.2137711166348903
2.0892778646146763,18.387310397120906,-0.05854991796779306,2.016087361595409,-1.171415831797799
2.078820825637171,18.027533653671334,-0.05763940400448716,1.981432010066547,-1.1309881402460866
2.068529195570342,17.673920955955957,-0.056712041182503996,1.9475979645487447,-1.092358364965464
2.0584056515987603,17.326327462147418,-0.055771780723959385,1.914551966657234,-1.055408091898378
2.0484522034379564,16.98461415931773,-0.05482208772941798,1.8822625092281766,-1.020029011523616
2.0386702755598467,16.64864755857004,-0.05386599980513117,1.8506997213017156,-0.9861218961112024
2.0290607795341513,16.31829941006275,-0.05290617825815179,1.8198352621125975,-0.9535956949957956
2.0196241777330433,15.993446436378566,-0.05194495286527053,1.789642223267222,-0.9223667327246909
2.0103605394783193,15.673970082831069,-0.05098436107610677,1.7600950383716243,-0.892357997062712
2.001269590566589,15.359756283427082,-0.05002618238756113,1.7311693994504402,-0.8634985056395443
1.992350756984683,15.050695241315811,-0.04907196852250646,1.7028421795636821,-0.8357227415580359
1.9836032035215267,14.746681222657223,-0.048123069957009004,1.6750913610872977,-0.8089701495881174
1.9750258678915453,14.447612362933526,-0.04718065926500651,1.647895969175981,-0.7831846856863118
1.9666174909060332,14.153390484810085,-0.04624575168512865,1.62123600997338,-0.758314413535226
1.9583766431610181,13.863920926726603,-0.04531922325948231,1.5950924131764352,-0.7343111426158603
1.950301748651409,13.579112381466931,-0.0444018268472859,1.5694469785976817,-0.7111301030288563
1.9423911056703127,13.298876744016912,-0.043494206276006434,1.544282326402528,-0.688729652886317
1.9346429053082421,13.023128968075145,-0.0425969088581124,1.5195818507282175,-0.6670710146182028
1.9270552478285454,12.751786930632004,-0.041710396471850195,1.4953296764178092,-0.6461180369887832
1.9196309806531053,12.484772324327711,-0.04078146103303887,1.4714992825187796,-0.6243965802025268
1.9123721809781238,12.222009457546193,-0.039871868688978414,1.4480881261647425,-0.6035901071957374
1.9052753819989705,11.963424123648412,-0.038981453301614,1.4250822504772698,-0.5836498383513361
1.8983371502611393,11.708944575349342,-0.038110010452065746,1.402468286179065,-0.5645300854045573
1.8915540920172798,11.458501421760591,-0.03725730336859656,1.3802334203626143,-0.5461880241740185
1.8849228585821929,11.212027530877322,-0.0364230681323673,1.3583653672292841,-0.5285834862386557
1.8784401508080724,10.969457937167785,-0.03560701824674942,1.336852340654459,-0.5116787677980358
1.8721027227877696,10.730729753948712,-0.03480884864550581,1.3156830284463445,-0.49543845413420423
1.8659073848811318,10.495782090252614,-0.03402823920602341,1.2948465681769605,-0.47982925825368405
1.8598510061482671,10.26455597191405,-0.03326485782580746,1.2743325244737453,-0.4648198724309437
1.8539305162637316,10.036994266621186,-0.03251836311347482,1.2541308676691916,-0.4503808315017302
1.8481429069769746,9.81304161269669,-0.031788406739379695,1.2342319537141104,-0.4364843868679628
1.8424852331767214,9.592644351388337,-0.031074635485656966,1.2146265052675773,-0.42310439027702523
1.8369546136102421,9.375750462464747,-0.03037669303077765,1.1953055938834023,-0.4102161865286838
1.8315482313025089,9.162309502925517,-0.029694221499593006,1.1762606232191677,-0.3977965143437404
1.8262633337149852,8.952272548647834,-0.029026862806225896,1.1574833131995397,-0.38582341470097786
1.8210972326791661,8.74559213880351,-0.0283742598139863,1.138965685070733,-0.3742761460139269
1.8160473041358753,8.542222222891247,-0.027736057333687548,1.1207000472877506,-0.36313510557731304
1.811110987707709,8.342118110239117,-0.027111902979273288,1.1026789821803533,-0.35238175676546035
1.8062857861288002,8.145236421841592,-0.026501447897491034,1.0848953333476992,-0.3419985615120904
1.8015692645532473,7.951535044404128,-0.025904347386429875,1.0673421937352388,-0.3319689176434254
1.7969590497610244,7.760973086476383,-0.025320261416046836,1.0500128943508051,-0.3222771006747922
1.7924528292779722,7.573510836562619,-0.02474885506231039,1.032900993579919,-0.31290820971547195
1.7880483504244902,7.389109723104742,-0.02418979886526741,1.0160002670631656,-0.30384811715774923
1.7837434193058008,7.207732276239959,-0.023642769120170107,0.9993046981011069,-0.2950834218543265
1.7795405471728643,7.029558687217229,-0.023055810134681626,0.9804018465958965,-0.33444240789619617
1.7754391903682536,6.8547783727718645,-0.022514821027656735,0.961601647241475,-0.3749730280746679
1.771431210691861,6.683373084958635,-0.02201828648781845,0.9429015506832811,-0.416574796464369
1.7675087436628945,6.515325025846835,-0.02156468050069763,0.9242991061145053,-0.4591486183822274
1.763664200212245,6.350616830004036,-0.021152468950965238,0.9057919588054637,-0.5025965713933896
1.759890267934359,6.18923154739344,-0.020780111914429578,0.8873778479789493,-0.5468216871805626
1.7561799119528954,6.031152626622408,-0.020446065657391647,0.8690546050325357,-0.5917277333134208
1.7525263754514562,5.876363898479436,-0.0201487843585976,0.8508201521115865,-0.6372189939287115
1.748923179918187,5.724849559695823,-0.01988672156661374,0.8326725010396672,-0.6832000482974248
1.745364125150917,5.57659415686679,-0.019658331403053463,0.8146097526162428,-0.7295755462123198
1.7418432890678708,5.43158257046478,-0.019462069519681983,0.7966300962949808,-0.7762499790765512
1.7383550273677506,5.289799998874852,-0.01929639381498836,0.778731810259761,-0.8231274455113599
1.7348939730822033,5.151231942378704,-0.019159764913317105,0.7609132619196589,-0.8701114102269021
1.7314550360633687,5.015864187009541,-0.01905064640706447,0.7431729088488038,-0.9171044548142934
1.7280334024493569,4.88368278819495,-0.018967504859735106,0.7255093002021986,-0.9640080190177166
1.72462453415115,4.7546740540987535,-0.018908809564788145,0.7079210786444187,-1.0107221309317522
1.7212241684056262,4.628824528565634,-0.018873032052139416,0.6904069828347061,-1.0571451244395655
1.7178283174411542,4.50612097356376,-0.01885864533088556,0.6729658505194589,-1.1031733420607641
1.7144332683045838,4.3865503510107615,-0.01886412285322896,0.6555966222916436,-1.1487008212120786
1.711035582901534,4.270099803856738,-0.01888793718065594,0.6382983460864111,-1.1936189616979132
1.7076320983056565,4.156756636284559,-0.018928558329095194,0.6210701824933544,-1.237816172039706
1.7042199273971887,4.046508292872076,-0.018984451764991032,0.60391141097867,-1.2811774920214942
1.7007964598966394,3.939342336542726,-0.019054076018890344,0.5868214371252156,-1.3235841885729271
1.6973593638659934,3.8352464251100677,-0.019135879877176472,0.5697998010154163,-1.364913321829602
1.6939065877575175,3.7342082861975463,-0.019228299105888063,0.5528461869014867,-1.4050372779042077
1.6904363630992156,3.636215690286722,-0.019329752653023034,0.535960434329914,-1.4438232645721703
1.6869472079163939,3.541256421614861,-0.019438638267216014,0.5191425509129798,-1.4811327657259428
1.683437931000851,3.449318246605415,-0.019553327461039827,0.5023927269697643,-1.51682095008962
1.6799076371530957,3.3603888794717633,-0.019672159736239404,0.4857113522930263,-1.5507360293216275
1.676355733539017,3.274455944585057,-0.0197934359757477,0.46909903533703445,-1.5827185602861553
1.6727819373208206,3.191506935139852,-0.019915410893101077,0.4525566251652285,-1.6126006859720874
1.669186284743222,3.111529167585868,-0.020036284413549328,0.43608523654572345,-1.6402053093242626
1.665569141880192,3.0345097312194156,-0.0201541918423407,0.4196862786370714,-1.6653451941899797
1.6619312172755367,2.960435432243159,-0.020267192653829362,0.4033614877657713,-1.6878219877683969
1.6582735767428378,2.8892927315069024,-0.0203732577094917,0.3871129648593058,-1.7074251595210859
1.6545976606275445,2.8210676750350636,-0.020470254682656244,0.37094321816113024,-1.7239308526624788
1.6509053038772867,2.7557458163284885,-0.02055593143131783,0.3548552119119188,-1.7371006463975867
1.647198759317056,2.6933121293010878,-0.02062789701568918,0.33885242172585134,-1.746680230447081
1.6434807245855638,2.633750910579078,-0.02068360000089067,0.3229388974076085,-1.7523979987337324
1.639754373260375,2.5770456697593858,-0.020720303612319146,0.3071193339222974,-1.7539635773311917
1.6360233907860322,2.5231790061064103,-0.020735057213713135,0.29139915111076375,-1.7510663142607332
1.6322920159269487,2.4721324700832064,-0.020724663442767917,0.27578458248039317,-1.743373777463811
1.628565088604032,2.423886408098138,-0.020685640145197758,0.26028277290927226,-1.7305303352108272
1.6248481051545105,2.3784197889542362,-0.0206141759605959,0.2449018842452106,-1.7121559346274138
1.6211472823003414,2.335710010800142,-0.020506077974615625,0.2296512063558403,-1.6878452552124839
1.6174696314577162,2.2957326880286537,-0.0203567091656669,0.2145412688829086,-1.657167504323557
1.6138230455276714,2.2584614187509224,-0.02016091227927485,0.19958394531411847,-1.6196672537579184
1.6102164010735636,2.2238675354916957,-0.019912914988590186,0.18479253534395543,-1.5748669093117043
1.6066596799785082,2.1919198450476856,-0.019606208289802217,0.17018180292283916,-1.5222716838367314
1.6031641165579265,2.162584368662852,-0.01923338527221682,0.15576793468641204,-1.4613783411067751
1.5997423791355982,2.135824101667005,-0.01878591942031859,0.14156836526745356,-1.3916895284713096
1.5964088000363776,2.1115988235678493,-0.018253848348799565,0.12760139138981502,-1.3127362460917842
1.5931796760603074,2.089865006340549,-0.017625306940869646,0.11388546669128333,-1.2241118853294786
1.5900736748263955,2.0705758906618286,-0.01688581788037567,0.10043804085006103,-1.1255221403464035
1.5871124041881872,2.0536818248905995,-0.016017189210827516,0.08727380105249301,-1.0168554386662954
1.5843212374484028,2.039130980924451,-0.014995774564553198,0.07440224301583342,-0.8982771023207862
1.5817305450233077,2.026870551474147,-0.013789696825392262,0.06182475087644548,-0.7703447308855932
1.5793775807855943,2.0168484446773576,-0.012354350260312081,0.04953199131010833,-0.6341283253113077
1.5773094560401808,2.0090152318051935,-0.010624813577615673,0.03750370726947434,-0.4912929547363474
1.5755880823362718,2.003325512188809,-0.008501560910261457,0.0257153995792506,-0.3440683441790072
1.5742994905623329,1.9997365179862108,-0.0058161254668405125,0.014162313782967364,-0.195010223556027
1.573577916072074,1.9981968354340403,-0.002201368869369783,0.002945270130021901,-0.0464967353777318
