x,y,v_x,v_y,omega
2.375,32.48,0.0,3.7435897435897436,-3.591836734693878
2.3739620563559245,31.741508456380387,-0.010379436440753793,3.641325692606351,-3.3168993441532764
2.371030642010667,31.022967975923557,-0.018934707011820706,3.5440791119619592,-3.073813088704735
2.3665396752743355,30.323413268209823,-0.02597496035149652,3.4514679651753615,-2.8578522316060484
2.3607669005058933,29.64195153113281,-0.03175278733292258,3.363149405594759,-2.6651131620519664
2.3539440693721585,28.977755130234975,-0.03647552400442586,3.278814603383617,-2.4923528893046045
2.3462651075269405,28.330055227060768,-0.04031409444775662,3.1981844283584326,-2.336862644353778
2.3378927007069854,27.698136202680956,-0.04340997375179253,3.1210058154397196,-2.1963682516170233
2.328963632963972,27.081330753028475,-0.04588070367834386,3.0470486810850907,-2.068951077616328
2.319593133960178,26.479015555997442,-0.04782428635959467,2.9761032892252026,-1.9529849144049376
2.3098784350577244,25.890607428332622,-0.04932270266493988,2.907977987423027,-1.8470852887385916
2.2999016904331944,25.31555990453365,-0.050444743580362494,2.8424972505666757,-1.7500685239187872
2.2897323861350607,24.753360181279312,-0.051248299400972676,2.7794999819766986,-1.660918503262332
2.2794293343186824,24.203526379935877,-0.05178221876281282,2.7188380314576723,-1.5787595507524341
2.269042329972907,23.665605087058218,-0.052087824694940915,2.6603748973189414,-1.502834197072576
2.258613531912002,23.13916913879875,-0.05220015591410934,2.603984585275728,-1.432484867621346
2.24817861761779,22.623815620090006,-0.05214898702800886,2.5495506018117244,-1.3671387347315556
2.2377677519077968,22.119164053576466,-0.05195967007192579,2.4969650633236626,-1.306295134832276
2.2274064017930835,21.624854756705282,-0.05165383107520446,2.446127905388189,-1.2495150742107586
2.217116023831427,21.14054734827154,-0.051249948541363916,2.396946178949213,-1.1964124428789782
2.206914645439052,20.66591938815275,-0.05076383538238493,2.349333422238668,-1.1466466311857189
2.196817357737106,20.200665136038282,-0.050209041637075916,2.30320909890606,-1.0999163030137222
2.1868367343763393,19.744494416726454,-0.049597191970587554,2.2584980942121886,-1.0559541262687997
2.1769831882489994,19.297131581075803,-0.0489382693028105,2.215130262294354,-1.0145222986445437
2.167265275938843,18.858314552998678,-0.048240853798758594,2.1730400184768532,-0.9754087364266575
2.1576899580830107,18.427793954009466,-0.047512324759559674,2.132165971415302,-0.9384238179939564
2.148262822448081,18.005332297812615,-0.04675903158973999,2.0924505905531716,-0.9033975929213145
2.1389882753974825,17.590703248261757,-0.04598643891624276,2.0538399049554132,-0.8701773831574329
2.1298697065015255,17.18369093475776,-0.04519925004332754,2.0162832300845617,-0.8386257153890202
2.120909630276889,16.784089319797964,-0.044401512203036904,1.9797329195133972,-0.8086185340015403
2.1121098084095706,16.391701613952964,-0.0435967064701456,1.9441441389366143,-0.7800436524681571
2.103471355289832,16.006339734043152,-0.042787824727241006,1.909474660161523,-0.7527994079086449
2.094994829250202,15.627823800723764,-0.04197743566905928,1.8756846730323684,-0.7267934892488666
2.086680311532407,15.255981672072433,-0.04116774150889476,1.8427366134809282,-0.7019419141098594
2.078527474703456,14.89064851011404,-0.040360626780614244,1.8105950061030036,-0.6781681334480975
2.0705356419846974,14.53166637751966,-0.03955770040696857,1.7792263198408136,-0.6554022462030964
2.0627038387420007,14.17888386198469,-0.038760332019999254,1.7485988355088904,-0.6335803089042582
2.055030837203448,13.832155726029892,-0.037969683365531616,1.7186825240390788,-0.6126437274418844
2.0475151953173465,13.491342580181847,-0.037186735495481425,1.6894489344413601,-0.5925387200955025
2.04015529053335,13.156310577679339,-0.03641231234447874,1.6608710905837305,-0.5732158424993832
2.0329493491791557,12.826931129022142,-0.03564710119746858,1.632923395988235,-0.5546295665619813
2.0258954720114595,12.503080634831004,-0.03489167047949484,1.6055815459231333,-0.5367379064852135
2.0189916564399732,12.18464023562424,-0.03414648523536663,1.5788224461444949,-0.5195020859856241
2.0122358158551026,11.87149557723924,-0.03341192061333886,1.552624137705489,-0.502886241631034
2.0056257964316027,11.563536590737758,-0.03268827362166167,1.5269657273093207,-0.4868571578967055
1.9991593917305859,11.260657285733522,-0.0319757733885063,1.5018273227330536,-0.4713840301338014
1.992834355379412,10.962755556170691,-0.03127459012323277,1.4771899728952447,-0.4564382521460611
1.9866550424945597,10.669733621824435,-0.030518538725288015,1.4530293705673238,-0.4401517488933497
1.9806250869548812,10.381497192417228,-0.029781016671497584,1.4293349235047312,-0.42460175469510825
1.97474081415972,10.097954684427197,-0.029061711280114234,1.4060901563955948,-0.4097463141454425
1.968998614400566,9.819017735076823,-0.028360286311427094,1.3832793371081589,-0.39554631453675343
1.9633949470798788,9.544601057904831,-0.027676386895444233,1.3608874346117485,-0.3819652626615331
1.9579263440124912,9.274622306471155,-0.027009643778431767,1.3389000797250035,-0.3689690814740019
1.952589411936923,9.009001945651523,-0.026359676977250484,1.3173035284713062,-0.3565259246410347
1.9473808343473338,8.747663130020317,-0.025726098918641478,1.2960846278407472,-0.3446060072270891
1.942297372742425,8.490531588858694,-0.025108517130445682,1.2752307837754813,-0.33318145094749324
1.937335867375084,8.237535517360033,-0.024506536542964655,1.2547299312111282,-0.3222261425917587
1.9324932375756791,7.988605473636806,-0.023919761451082912,1.2345705060211534,-0.31171560436640944
1.9277664817124502,7.743674281162281,-0.023347797181206963,1.2147414187240784,-0.3016268750376039
1.9231526768441907,7.502676936307367,-0.022790251501389046,1.1952320298250756,-0.29193840086970346
1.9186489781132445,7.265550520657449,-0.02224673580807219,1.1760321266741092,-0.2826299354587416
1.914252617920576,7.032234117816795,-0.021716866118612656,1.1571319017324129,-0.273682447651068
1.9099609049192132,6.802668734428767,-0.021200263895016946,1.1385219321478512,-0.2650780368186719
1.9057712228576018,6.576797225159215,-0.020696556721096545,1.120193160547669,-0.25679985483502826
1.9016810293002493,6.354564221408008,-0.02020537885242879,1.102136876964381,-0.24883203415981636
1.8976878542494005,6.135916063529855,-0.01972637165606044,1.084344701817166,-0.24115962149845047
1.893789298688319,5.920800736360423,-0.019259183954752995,1.066808569877154,-0.23376851655383277
1.8899830330639733,5.709167807857657,-0.01880347228870406,1.049520715150501,-0.22664541543380232
1.8862667957244978,5.500968370680788,-0.018358901106051033,1.0324736566181818,-0.21977775831901633
1.8826383913246887,5.296154986541367,-0.017925142892041016,1.0156601847760294,-0.21315368103300872
1.8790956892109336,5.094681633171486,-0.01750187824550758,0.999073348922775,-0.2067619701893976
1.875640152895893,4.8966708636423455,-0.017053484904899188,0.9810343463686442,-0.2338144840176511
1.8722707585733722,4.702256771883693,-0.01664045832030896,0.9631065712178805,-0.26250728393557693
1.8689804959749348,4.511417411657462,-0.01626216766406571,0.9452870310444328,-0.2927340789570363
1.8657624874263594,4.324131423780528,-0.015917917821687142,0.9275728477248912,-0.3243909898962489
1.8626100000699064,4.1403780136859965,-0.015606955742843124,0.909961253220418,-0.3573763212834518
1.859516456870952,3.9601369297905684,-0.015328476246704092,0.8924495857338782,-0.3915903382844904
1.8564754465143234,3.7833884425940525,-0.015081627319580385,0.8750352862312721,-0.42693504771739954
1.8534807322884372,3.610113324439027,-0.014865514939281718,0.8577158953189716,-0.46331398226459386
1.8505262600487753,3.4402928298600592,-0.014679207457335967,0.8404890504706901,-0.500631986978232
1.8476061653463343,3.2739086764529297,-0.014521739567076312,0.8233524836005895,-0.5387950071684607
1.8447147798013654,3.1109430261947217,-0.01439211588260943,0.8063040189814904,-0.5777098767493207
1.8418466367980257,2.9513784671455916,-0.014289314150789106,0.7893415715098284,-0.6172841060947621
1.8389964765713955,2.795197995462427,-0.014212288115513656,0.772463145321834,-0.6574256684270483
1.8361592507547524,2.6423849976534015,-0.014159970050916178,0.7556668327684386,-0.698042783721295
1.833330126451931,2.492923233000589,-0.01413127297729701,0.7389508137596854,-0.7390436990623893
1.8305044898971081,2.3467968160753223,-0.014125092570930692,0.7223133554929875,-0.7803364643333308
1.8276779497624016,2.2039901992676754,-0.014140308776136241,0.7057528125834995,-0.8218287020463121
1.824846340172268,2.0644881552474033,-0.014175787125198886,0.6892676276192196,-0.8634273700486477
1.822005723482864,1.9282757592686544,-0.014230379768841133,0.6728563321682853,-0.9050385157439139
1.8191523928842872,1.7953383712246875,-0.014302926216925194,0.6565175482713816,-0.9465670203631731
1.8162828748840059,1.6656616173517165,-0.014392253785888886,0.6402499904583198,-0.9879163317006147
1.8133939317308139,1.5392313714724004,-0.014497177746030253,0.6240524683348252,-1.0289881835909256
1.8104825638403994,1.4160337356595676,-0.01461650115811507,0.6079238897935051,-1.069682300250675
1.8075460122861045,1.2960550201890122,-0.01474901438483328,0.5918632649120348,-1.1098960834313836
1.8045817614217896,1.1792817226366097,-0.014893494258316268,0.5758697106119878,-1.1495242801361556
1.8015875417079399,1.0657005059590468,-0.015048702880180112,0.5599424561636572,-1.1884586284332672
1.7985613328173913,0.9552981753790881,-0.015213386025305453,0.5440808496359325,-1.2265874786576487
1.7955013671033893,0.8480616538748862,-0.015386271114717272,0.5282843654060886,-1.2637953870238892
1.7924061335202783,0.743977956048024,-0.015566064716390401,0.5125526128625454,-1.2999626783820957
1.7892743820960924,0.6430341601163079,-0.015751449525468083,0.4968853464546324,-1.33496497453167
1.7861051290668342,0.5452173777440876,-0.015941080767113404,0.4812824772675537,-1.3686726841706567
1.782897662794536,0.45051472138447934,-0.016133581955868875,0.4657440863285338,-1.4009504502053574
1.7796515506054686,0.35891326876342333,-0.016327539934804614,0.45027043988199844,-1.4316565497860911
1.7763666467014199,0.27040002408441666,-0.016521499105685417,0.43486200690806054,-1.4606422420860805
1.7730431013160877,0.18496187547361842,-0.01671395474763518,0.4195194791999529,-1.4877510585261584
1.769681371310722,0.10258554811736076,-0.016903345306021243,0.40424379436264934,-1.5128180299060758
1.7662822324286056,0.023257552466418474,-0.01708804351514151,0.38903616214678616,-1.535668844790387
1.7628467934573635,-0.053035873207129214,-0.017266346197281728,0.37389809458872114,-1.5561189335977035
1.759376512582019,-0.12630882671479782,-0.017436462556161852,0.35883144048797844,-1.5739724732813438
1.7558732162510229,-0.1965758132450972,-0.01759650075379914,0.34383842481502047,-1.5890213084507667
1.7523391209231352,-0.2638518250966868,-0.01774445252507935,0.32892169370085067,-1.6010437865362397
1.748776858116435,-0.32815243103755165,-0.017878175541922305,0.3140843657078059,-1.6098035075393011
1.7451895032436497,-0.3894938766188787,-0.01799537318593064,0.29933009010548545,-1.615047993618351
1.7415806087930292,-0.44789319691510343,-0.018093571320272207,0.2846631128567571,-1.616507291082662
1.7379542425048973,-0.503368343293161,-0.01817009156104992,0.2700883509238085,-1.61389252855844
1.7343150313064,-0.5559383259137718,-0.01822202042392253,0.2556114752823237,-1.6068944719840847
1.730668211909582,-0.6056233737023646,-0.018246173544258226,0.24123900260359984,-1.5951821423909882
1.7270196891644272,-0.652445113443413,-0.018239053907288333,0.22697839480686782,-1.578401600106344
1.7233761035110542,-0.6964267693649759,-0.018196802626441414,0.21283816440874126,-1.556175054911287
1.7197449092298143,-0.7375933839576021,-0.018115140185957924,0.1988279815175204,-1.5281005443271733
1.7161344657041164,-0.7759720596102753,-0.017989295071021063,0.18495877500917987,-1.493752543922417
1.7125541446873438,-0.8115922186365481,-0.01781391509670275,0.17124281525353324,-1.4526840518745558
1.7090144577680677,-0.8444858759470009,-0.017582954096059825,0.15769375785099646,-1.4044309491501843
1.7055272101356205,-0.8746879133348244,-0.017289522228410386,0.1443266160272093,-1.3485198079271539
1.70210568982985,-0.9022363361645063,-0.016925680829295277,0.13115761226961742,-1.284480840110251
1.6987649067007689,-0.9271724810345532,-0.01648215046151601,0.11820383643082794,-1.2118683733421376
1.6955219036147313,-0.9495411255314394,-0.015947880398859207,0.10548260853800091,-1.1302920997436359
1.6923961761756066,-0.9693904279725274,-0.015309393992387722,0.09301041587288683,-1.0394632195466718
1.6894102598670018,-0.9867715980256122,-0.014549769093659733,0.08080128465796187,-0.9392600340342201
1.6865905806678185,-1.0017381769784492,-0.013647022898175104,0.06886450487043393,-0.8298163786688451
1.6839687262102236,-1.014344812927554,-0.01257152167777342,0.05720185462061142,-0.7116311503209437
1.6815833978708552,-1.0246455037011302,-0.01128176171590925,0.04580505311512552,-0.5856841936836998
1.6794834997252104,-1.032691547656384,-0.009717219740538723,0.034655386437413636,-0.45351926762419914
1.6777332922856627,-1.0385300623320148,-0.007784854654940528,0.02372976031886339,-0.3172218932696014
1.6764221420186713,-1.042205349156859,-0.005326648014971576,0.01302310792956115,-0.17919897290427372
1.675689823850808,-1.0437706140336829,-0.001996533663662154,0.002629540838680937,-0.04170198175910644
