x,y,v_x,v_y,omega
2.375,32.48,0.0,2.051282051282051,-4.448979591836735
2.3743724906334664,32.07352830607592,-0.0062750936653359225,2.0134348879587343,-4.247094559414462
2.3725588598156384,31.674520463813117,-0.011861214512942975,1.9766435346692959,-4.058254272366453
2.3696899338991266,31.282770494413995,-0.01682804465217578,1.940856159321899,-3.881326284976704
2.3658833716110115,30.89808242093004,-0.02123757822897448,1.9060245755176304,-3.715297206555944
2.361245106614571,30.520269574613863,-0.025145071735430916,1.8721038876441514,-3.55925818476019
2.355870613229864,30.14915396775307,-0.028599862111640152,1.8390521809638016,-3.4123924041945854
2.3498460196817654,29.784565724682917,-0.03164607336934569,1.8068302497377164,-3.273964285151753
2.34324908946399,29.426342563942192,-0.03432322880840587,1.775401357669535,-3.1433101224201057
2.336150088286998,29.074329325580457,-0.036666782961514814,1.7447310259478088,-3.0198299485023097
2.3286125514876934,28.728377538488836,-0.03870858503153462,1.7147868449684296,-2.9029804415857066
2.3206939646186546,28.388345023345174,-0.040477283658852656,1.6855383064681648,-2.7922687279535823
2.3124463681246565,28.054095527365426,-0.04199868128112759,1.656956653329311,-2.687246952570864
2.303916895491203,27.725498387557685,-0.04329604505340723,1.6290147447481054,-2.587507511372574
2.2951482529631124,27.40242821960137,-0.04439038022749775,1.601686934815079,-2.492678855152999
2.2861791478401376,27.084764629834954,-0.04530067100225117,1.574948962849043,-2.4024217885482377
2.2770446714282215,26.77239194814307,-0.046044093116910996,1.5487778540697905,-2.3164261989403507
2.2677766419324628,26.465198979796362,-0.04663620184067513,1.5231518293972977,-2.2344081595989285
2.2584039118992414,26.16307877452316,-0.04709109849153791,1.49805022333472,-2.156107359345352
2.248962639979105,25.865932803149285,-0.0473216207098284,1.4734094904040262,-2.078126109227486
2.239484602846018,25.573666192014308,-0.04745875062104078,1.4492566209457491,-2.0037480558342935
2.2299875666628854,25.28618314686433,-0.047511611210285444,1.4255738305540075,-1.932763507470669
2.220487556777504,25.003391345910984,-0.047488487643528726,1.402344178979497,-1.8649773069835731
2.210999017260369,24.725201776147323,-0.04739690752781957,1.37955151865709,-1.800207661550063
2.2015349552155667,24.451528579573758,-0.047243712920204094,1.3571804470785782,-1.7382850796699907
2.1921070714232394,24.182288908599332,-0.04703512500307065,1.3352162626656638,-1.6790514043434672
2.18272587869964,23.9174027899493,-0.04677680223292129,1.3136449238346677,-1.6223589326710244
2.173400809209014,23.656792996468198,-0.046473892673337874,1.2924530109763717,-1.5680696132140635
2.164140311827767,23.40038492626031,-0.04613108113913252,1.2716276911025426,-1.5160543134164415
2.1549519405432944,23.1481064886565,-0.04575263170559443,1.2511566849355291,-1.4661921502334188
2.1458424347654463,22.899887996539015,-0.04534242607288558,1.2310282362392908,-1.418369877857462
2.136817792336184,22.655662064594118,-0.04490399821973789,1.2112310832097166,-1.3724813270850338
2.127883335941051,22.415363513097205,-0.04444056573159012,1.1917544317594015,-1.3284268914460582
2.1190437735533663,22.17892927686652,-0.04395505814525858,1.1725879305474778,-1.2861130557281433
2.110303253477403,21.946298319049884,-0.043450142614375915,1.153721647618855,-1.2454519629793783
2.1016654144993168,21.717411549435045,-0.042928247166484794,1.1351460485295313,-1.2063610164739829
2.0931334316033428,21.492211746997526,-0.04239158179325753,1.116851975845653,-1.1687625134805923
2.0847100576650837,21.27064348642157,-0.04184215758933129,1.0988306299138915,-1.132583307989035
2.0763976614929236,21.052653068349223,-0.04128180413226947,1.0810735508095914,-1.097754499832853
2.068198262552116,20.83818845313055,-0.04071218527581064,1.063572601377149,-1.0642111478956833
2.0601135626734823,20.627199197864407,-0.04013481351052468,1.046319951284292,-1.0318920053135685
2.0521449750194316,20.41963639653413,-0.03955106302998001,1.0293080620184567,-1.0007392747854225
2.0442936505538043,20.21545262305635,-0.03896218162629276,1.0125296727593458,-0.970698382283031
2.0365605022385487,20.014601877073705,-0.03836930152626614,0.9959777870671014,-0.9417177676124712
2.028950200612795,19.81722799694537,-0.037733714731270275,0.9777610142162274,-0.9508802329058988
2.021464522647299,19.623485359487567,-0.03712306492368869,0.9596653603618172,-0.9621143658134202
2.0140984730892315,19.433350078766217,-0.03653743065698548,0.9416874468517068,-0.9752944927906178
2.0068470524407584,19.24679893061784,-0.035976775827745784,0.9238240346320694,-0.9902980954178496
1.9997052789510372,19.063809325270633,-0.03544095906946781,0.9060720188400044,-1.00700553762452
1.992668208803169,18.884359280999682,-0.0349297424092128,0.8884284238694721,-1.0252998004366114
1.9857309546384656,18.708427398723295,-0.034442799237821495,0.8708903988944033,-1.0450662231688939
1.9788887025506736,18.53599283745028,-0.033979721640099894,0.8534552138357738,-1.066192250004661
1.9721367276739297,18.367035290490463,-0.03354002712733842,0.8361202557623716,-1.0885671809199422
1.9654704084801233,18.201534962342432,-0.03312316481072383,0.818883025717946,-1.1120819259158914
1.9588852398939909,18.03947254617359,-0.0327285210506024,0.8017411359704348,-1.1366287615224298
1.952376845327618,17.880829201808346,-0.03235542461312638,0.7846923076820589,-1.162101088528072
1.9459409877300518,17.725586534139907,-0.032003151362535814,0.7677343690022963,-1.188393189875032
1.9395735797423814,17.573726571880766,-0.031670928514166655,0.7508652535891298,-1.2153999876348986
1.933270693043944,17.425231746565096,-0.031357938470207236,0.7340829995675643,-1.243016797948105
1.9270285669712013,17.280084871714514,-0.031063322257221377,0.717385748938268,-1.2711390827696702
1.9208436164873302,17.13826912207535,-0.03078618258149036,0.7007717474533766,-1.2996621972138735
1.914712439577654,16.999768012831904,-0.03052558651527025,0.6842393449810582,-1.3284811312311076
1.9086318241437183,16.864565378695254,-0.03028056782408607,0.6677869963854591,-1.3574902442806551
1.9025987544670937,16.73264535276129,-0.030050128942160553,0.6514132629541951,-1.386582991583
1.8966104173128806,16.603992345024693,-0.029833242599969768,0.6351168144117282,-1.4156516404440054
1.890664207742414,16.478591020427135,-0.029628853104697227,0.6188964315638655,-1.444586975040411
1.8847577347048459,16.356426276308113,-0.029435877270984186,0.6027510096263482,-1.4732779879412607
1.8788888264781667,16.23748321911556,-0.029253204995806713,0.5866795622991968,-1.5016115565129684
1.8730555360318357,16.121747140219814,-0.02907969946750465,0.570681226658284,-1.5294721022169075
1.8672561463855957,16.009203490659317,-0.02891419699489419,0.5547552689466676,-1.5567412306584048
1.8614891760423102,15.89983785462858,-0.028755506437958604,0.5389010913607124,-1.583297350086235
1.855753384576838,15.793635921498495,-0.028602408216767166,0.5231182399401352,-1.6090152658746837
1.8500477784681664,15.69058345613578,-0.028453652869948165,0.5074064136870048,-1.6337657483500332
1.8443716172683562,15.590666267261419,-0.02830795912815299,0.49176547505661666,-1.6574150711562339
1.8387244202094013,15.49387017355744,-0.02816401146139535,0.4761954619831844,-1.6798245171999586
1.8331059733580806,15.400180967196562,-0.028020457051811856,0.4606966016255983,-1.7008498490870787
1.8275163374393872,15.30958437442969,-0.02787590213511985,0.4452693260431232,-1.7203407408809122
1.8219558564614093,15.2220660128216,-0.0277289076446596,0.4299142900377791,-1.738140168006224
1.8164251672888274,15.137611344674927,-0.027577984081159395,0.4146323914289551,-1.7540837522330233
1.810925210328818,15.056205626126438,-0.02742158551893566,0.39942479405592374,-1.7679990589590837
1.8054572415124546,14.97783385133743,-0.027258102644700122,0.38429295383416356,-1.7797048445524868
1.800022845777196,14.902480691132034,-0.027085854707885326,0.369238648219786,-1.7890102524321712
1.7946239522823526,14.830130425364086,-0.02690308024054943,0.35426400945967956,-1.7957139580204904
1.7892628516203763,14.760766868216301,-0.02670792637921332,0.3393715620181712,-1.7996032649302036
1.7839422153236013,14.694373285557859,-0.026498436588534836,0.32456426456624843,-1.8004531580784782
1.7786651180102782,14.630932303412756,-0.02627253654469768,0.30984555688477855,-1.7980253243180397
1.7734350625677628,14.570425806529201,-0.026028017880455105,0.2952194119507553,-1.7920671582995253
1.7682560088379933,14.512834826002273,-0.025762519417241076,0.2806903933185296,-1.7823107815622725
1.7631324063560436,14.458139414906785,-0.02547350540225679,0.26626371763633544,-1.768472117613902
1.7580692318044493,14.406318510973822,-0.02515824011368698,0.25194532169330436,-1.7502500868696178
1.7530720319961244,14.35734978553576,-0.024813757969560344,0.23774193268732272,-1.7273260154137358
1.748146973405703,14.311209478335584,-0.024436827934656145,0.2236611393144312,-1.6993633943124073
1.7433008995621575,14.267872218441443,-0.024023910500796324,0.20971145962696247,-1.666008186779974
1.7385413980404576,14.227310832564843,-0.023571104716201628,0.19590239913905488,-1.6268899658980993
1.7338768794192525,14.189496143747654,-0.023074081495848855,0.18224448903282142,-1.5816242851391051
1.7293166715199613,14.154396765934877,-0.022527997497063718,0.1687492890949502,-1.5298168494791873
1.724871133692074,14.121978903757878,-0.021927380781811095,0.15542933267505388,-1.4710702800525643
1.7205517981474188,14.092206172388018,-0.021265974664738774,0.14229798102356128,-1.4049945626936855
1.7163715488241869,14.06503946011437,-0.020536518567580916,0.12936914171291997,-1.3312226439389003
1.712344853681786,14.040436866796952,-0.019730432856427588,0.11665679146126175,-1.2494330629209491
1.7084880747664544,14.01835376451978,-0.018837356296889884,0.1041742313104748,-1.1593818919600853
1.7048198934686247,13.998743041238122,-0.01784445668140499,0.0919330015061173,-1.0609463644825785
1.701361908550107,13.981555599483961,-0.016735392503771748,0.07994141603549686,-0.9541818795940812
1.6981394955378877,13.966741179464474,-0.015488737618421752,0.06820278415938733,-0.8393916196750926
1.6951830647785386,13.954249537195047,-0.014075569975067741,0.05671363853487215,-0.7172023075445334
1.6925299380076293,13.944031894665478,-0.012455697734025384,0.04546278676080178,-0.5886291357995572
1.690227230092371,13.93604232802777,-0.010571381418557258,0.034432879616281185,-0.4550979786550925
1.6883365598766773,13.9302382586942,-0.008335320738381464,0.023607813719414818,-0.31837942494705285
1.6869429416235724,13.926578065099406,-0.005600861792667283,0.012994122228537458,-0.1803895149301043
1.6861781163530152,13.925009105900283,-0.0020473909129035566,0.002695469762697621,-0.042852008090783406
