x,y,v_x,v_y,omega
2.375,32.48,0.0,2.051282051282051,-2.2448979591836737
2.374638497172095,32.05326567252598,-0.0034428840752849283,2.0128544008514035,-2.1392607347098385
2.3735951659582786,31.63448658314009,-0.006493603675346838,1.9755178790142465,-2.040750131692433
2.3719480206142274,31.223439033605263,-0.009193494839428301,1.9392206879841183,-1.9487257060966794
2.3697668896940107,30.81990985478004,-0.011579180591204668,1.9039143484465844,-1.8626160044158837
2.3671143435720667,30.423695738867373,-0.013683163427311837,1.8695534221502206,-1.7819100538609036
2.364046506147599,30.034602626829052,-0.015534335853333253,1.836095263929043,-1.706150028141122
2.3606137666373685,29.652445145191223,-0.01715842138695444,1.803499799288392,-1.6349249093797145
2.3568614049704713,29.277046087214888,-0.018578356393021214,1.7717293242957433,-1.5678649967138694
2.3528301422989886,28.908235934037116,-0.019814621430624034,1.7407483250163793,-1.5046371366754399
2.348556626461196,28.54585241192528,-0.020885529405494475,1.7105233141439304,-1.4449405706071274
2.3440738608227654,28.189740082244587,-0.021807476674797356,1.6810226828150676,-1.3885033109919942
2.3394115837303513,27.839749961131616,-0.022595162300575903,1.6522165658798675,-1.3350789723312073
2.3345966048038465,27.495739166205016,-0.023261779856610876,1.624076719135392,-1.2844439936304364
2.3296531034379977,27.157570587936817,-0.023819185532428674,1.5965764072283968,-1.2363951990760988
2.3246028941560284,26.825112583562273,-0.024278045724419932,1.5696903011006313,-1.1907476514414777
2.319465662836896,26.49823869162751,-0.024647966838743953,1.5433943839923456,-1.1473327594360303
2.3142591773067682,26.17682736546853,-0.02493760963866429,1.51766586514079,-1.1059966058228972
2.3089994753302423,25.860761724085258,-0.02515479013777472,1.4924831004141927,-1.0665984678616656
2.303709363869218,25.549930553116944,-0.025227223776744002,1.4678137659506825,-1.0269849594079792
2.2984090762031406,25.24422679818398,-0.025251706376372446,1.4436505667442303,-0.9892594853689736
2.293108157676669,24.943546127702675,-0.02523323197097436,1.4199748664110403,-0.9533090861592541
2.2878151555189556,24.647788030783452,-0.025176312388203025,1.3967689137720243,-0.9190288396925084
2.2825377150307644,24.356855636896505,-0.025085025594567264,1.3740157899132217,-0.8863211991113075
2.277282666162644,24.070655546256432,-0.024963058863721355,1.3516993590398336,-0.8550953923592124
2.272056101508803,23.78909767016271,-0.02481374736333814,1.3298042228051528,-0.825266877151288
2.2668634466239688,23.51209508059638,-0.024640108682701285,1.3083156778265155,-0.7967568456394335
2.2617095234675646,23.239563868431176,-0.024444873759245995,1.2872196761278476,-0.7694917737163488
2.2565986076891345,22.971423009669103,-0.024230514606753416,1.266502788272846,-0.7434030104690992
2.2515344803894686,22.707594239158112,-0.0239992691995869,1.2461521689747015,-0.7184264037909198
2.246520474921861,22.448001931292048,-0.023753163825249054,1.2261555249878262,-0.6945019585973191
2.2415595192362274,22.192572987232342,-0.023494033180785048,1.2065010851045845,-0.6715735244776234
2.2366541742143196,21.941236728226304,-0.023223538456432574,1.1871775720957716,-0.6495885099526232
2.231806668396105,21.693924794629236,-0.022943183621800464,1.1681741764477365,-0.6284976208087871
2.227018929454769,21.450571050267236,-0.022654330105212634,1.149480531761802,-0.6082546202446294
2.2222926127400227,21.211111491804466,-0.02235821003522457,1.1310866916931301,-0.5888161087995993
2.2176291271759214,20.975484162803447,-0.02205593819431228,1.1129831083165687,-0.5701413222440714
2.2130296587696274,20.743629072189485,-0.021748522818009652,1.0951606118164137,-0.5521919457939003
2.2084951919611426,20.51548811685118,-0.021436875358037386,1.0776103914055262,-0.5349319431774103
2.2040265290204766,20.291005008127968,-0.021121819314972118,1.0603239773869588,-0.5183273992290562
2.199624307677779,20.07012520195312,-0.02080409823453013,1.0432932242782547,-0.5023463748144769
2.1952890171532564,19.852795832436787,-0.0204843829513962,1.026510294924946,-0.4869587730081264
2.191021012737027,19.638965648688433,-0.02016327815555087,1.0099676455355788,-0.4721362155487413
2.1868205290541445,19.42858495469173,-0.019841328348095776,0.9936580115758653,-0.45785192869101377
2.182689694089913,19.221747134799585,-0.019499957025536804,0.9762259873969681,-0.4708742261486768
2.178628412785521,19.01855771686833,-0.01917891254009914,0.958911326234004,-0.4859072149935385
2.174632376919163,18.818992400787845,-0.01887857190140843,0.9417107316753845,-0.5028367994319458
2.1706972120450283,18.623027565092478,-0.018599188804632797,0.9246210368518981,-0.5215519866812919
2.1668185023384923,18.4306402403248,-0.018340903638570633,0.9076391990308037,-0.5419446455303043
2.1629918134205353,18.24180808349052,-0.018103752722923184,0.8907622946290026,-0.5639092724201776
2.1592127133175656,18.056509353518578,-0.017887676829170474,0.8739875146275624,-0.5873427641368426
2.1554767917018274,17.874722887643593,-0.01769252903500221,0.8573121603722892,-0.6121441962278934
2.1517796775475526,17.696428078631023,-0.01751808195808931,0.8407336397474106,-0.6382146062750012
2.1481170553287896,17.52160485276781,-0.017364034411083428,0.8242494637117712,-0.6654567811640533
2.1444846798764385,17.3502336485432,-0.017230017516070475,0.8078572431892808,-0.6937750475007506
2.1408783900043598,17.182295395946014,-0.017115600313250056,0.7915546863077116,-0.7230750643188657
2.137294121007458,17.017771496305556,-0.01702029489533869,0.7753395959823557,-0.7532636172216731
2.1337279161283598,16.85664380260384,-0.01694356109607373,0.759209867843536,-0.7842484130839837
2.130175937083661,16.69889460018676,-0.016884810758201363,0.7431634885095719,-0.8159378744224696
2.126634473735688,16.54450658780126,-0.01684341160344055,0.7271985342095407,-0.8482409325151997
2.1230999529912964,16.393462858884128,-0.016818690724100038,0.7113131697631091,-0.8810668183170973
2.1195689470053733,16.245746883026577,-0.016809937713262117,0.6955056479278701,-0.9143248501758763
2.1160381807634714,16.101342487535703,-0.016816407447708757,0.6797743091280527,-0.9479242173023358
2.1125045391152844,15.96023383901112,-0.016837322535026202,0.6641175815822429,-0.981773757889042
2.1089650733285836,15.822405424850533,-0.01687187543355501,0.6485339818519138,-1.0157817307016503
2.1054170072317024,15.687842034593178,-0.016919230251024115,0.633022115837194,-1.0498555788866253
2.101857743011742,15.556528741003866,-0.01697852422478816,0.6175806802514789,-1.0839016846469973
2.0982848667353675,15.428450880793168,-0.01704886888354256,0.6022084646123097,-1.117825113333129
2.0946961536594415,15.303594034860662,-0.017129350887183526,0.5869043537925148,-1.1515293453772562
2.09108957339979,15.181944007938228,-0.017219032538069216,0.5716673311830517,-1.1849159943678615
2.0874632950281984,15.063486807498624,-0.017316951953278554,0.5564964825274452,-1.2178845094117887
2.083815692170336,14.94820862178102,-0.017422122883505226,0.5413910004973569,-1.2503318597676423
2.0801453481807775,14.836095796769367,-0.017533534159910213,0.5263501900898102,-1.2821521995529035
2.076451061475707,14.727134811941326,-0.01765014874552317,0.5113734749391652,-1.3132365101292283
2.072731851109358,14.621312254584328,-0.01777090236255988,0.49646040465129215,-1.3434722175561555
2.0689869626868607,14.518614792451142,-0.017894701661228227,0.48161066328381164,-1.3727427822745875
2.065215874714072,14.419029144499266,-0.018020421889135045,0.46682407911501117,-1.400927257941084
2.06141830549433,14.322542049426321,-0.01814690401317291,0.4521006358654154,-1.4278998160877439
2.0575942206929954,14.229140231676624,-0.018272951237632614,0.4374404855602636,-1.4535292330390672
2.053743841703468,14.138810364551691,-0.018397324853103164,0.4228439632486097,-1.4776783352904161
2.04986765496316,14.051539030008897,-0.018518739340305245,0.40831160382561443,-1.5002033993631556
2.0459664223851095,13.967312674677117,-0.018635856641131387,0.3938441612389453,-1.5209535020300005
2.0420411930907574,13.886117561555249,-0.01874727949555267,0.37944263039790965,-1.5397698167955165
2.038093316652355,13.80793971678829,-0.018851543727327263,0.3651082721445468,-1.5564848526867696
2.034124458079959,13.73276487083584,-0.01894710934311352,0.3508426416883204,-1.5709216318528536
2.030136614818696,13.660578393258998,-0.019032350287961054,0.33664762094828576,-1.5828928033268386
2.0261321360576643,13.591365220254485,-0.01910554267424491,0.3225254552851828,-1.592199691767709
2.022113744693573,13.525109773960356,-0.019164851269481063,0.3084787951351037,-1.5986312823587476
2.0180845623414374,13.461795872449137,-0.019208313988954118,0.2945107430669823,-1.601963146704401
2.0140481378433166,13.401406629216922,-0.019233824088389688,0.28062490676364343,-1.6019563201341447
2.0100084797971256,13.343924340880204,-0.019239109684857505,0.2668254583479538,-1.5983561491473757
2.0059700937152476,13.289330361721436,-0.01922171014255376,0.25311720030697066,-1.5908911400582086
2.001938024533516,13.237604963703948,-0.019178948731078897,0.239505637954827,-1.579271858016666
1.9979179053352365,13.1887271806456,-0.01910790077634429,0.2259970578389785,-1.5631899520850667
1.9939160133480707,13.142674635458093,-0.019005356244281933,0.21259861061345398,-1.5423174206734103
1.9899393345391223,13.099423349816508,-0.01886777526951328,0.19931839549686162,-1.516306287750693
1.9859956385160702,13.058947536459378,-0.018691234473838646,0.18616554123769305,-1.4847889414832711
1.9820935660057375,13.021219375739268,-0.018471360862664262,0.17315027514430725,-1.4473795039939872
1.9782427320338152,12.98620878034863,-0.018203248393739616,0.16028396667129952,-1.4036767683386644
1.9744538492471815,12.953883155766405,-0.017881349574198433,0.14757912458796502,-1.3532694753937025
1.9707388778928867,12.924207169498459,-0.017499329990515247,0.13504931605916154,-1.2957450311700498
1.9671112122692491,12.897142550376401,-0.017049866425080055,0.12270896129377314,-1.2307032040806631
1.9635859187654183,12.87264795087589,-0.016524357420927723,0.11057293871110105,-1.1577768943848747
1.960180049147251,12.850678921232173,-0.015912496085427295,0.09865591503859276,-1.076662681477115
1.956913066499971,12.831188063623728,-0.015201624364859454,0.08697130027994346,-0.9871643367884104
1.9538074432912504,12.814125454436862,-0.014375739527717028,0.07552973959497569,-0.8892523447459303
1.9508895262568908,12.799439432286693,-0.013413946513802868,0.0643371380256743,-0.7831406291550977
1.9481908196175528,12.787077824905982,-0.012288021479892887,0.05339245607634913,-0.6693761950412179
1.9457499345096547,12.776989581310456,-0.010958503357231747,0.04268605435723453,-0.5489256302025779
1.943615641343477,12.769126503658526,-0.009368098225411483,0.0322003994706597,-0.42322300562971615
1.941851941267125,12.763444189955639,-0.007429045358895323,0.021916873890191525,-0.2941218036995429
1.9405477509634474,12.759899957101293,-0.0049918146761271445,0.011837724722612259,-0.16368578698997122
1.939842794275842,12.758440093489767,-0.0017220585391640054,0.002065738244316431,-0.03379589221730464
