x,y,v_x,v_y,omega
2.375,32.48,0.0,3.0769230769230766,-3.3469387755102042
2.374221392961619,31.871846382609,-0.007786070383809083,3.004613096986878,-3.132880267109451
2.3720013535080575,31.277861888009085,-0.014414324151805664,2.93523184901227,-2.9392867721684164
2.368554974577187,30.697479602002012,-0.02004946515690024,2.868591011058468,-2.763621805726501
2.3640669444063724,30.13016862978004,-0.024830836551243643,2.804518711161249,-2.603720196259912
2.3586961901677266,29.575430993186476,-0.028876705835216003,2.742857654774389,-2.457726352277878
2.35257974386147,29.032798875441202,-0.03228775722734812,2.6834635226783603,-2.3240439492266125
2.3458359730164817,28.501832164057006,-0.03514995122253634,2.626203591163585,-2.201294715247315
2.338567290276546,27.982116251289533,-0.03753687617682065,2.5709555365111805,-2.0882845085416664
2.3308624336542447,27.47326005828537,-0.03951169004619396,2.517606393530442,-1.9839752699321078
2.3227983916618538,26.97489425454871,-0.04112872987771497,2.4660516438361775,-1.8874617335789308
2.3144420335981493,26.486669648751768,-0.04243485075932863,2.4161944141332117,-1.7979520097818027
2.3058514941670523,26.008255730502576,-0.04347054355164194,2.367944768358711,-1.7147513331684479
2.2970773527101622,25.539339345630616,-0.044270871017259086,2.3212190803608794,-1.6372484097451394
2.288163640177399,25.079623489990077,-0.04486625431037231,2.2759394760445306,-1.564903906455259
2.279148701173888,24.628826208813347,-0.04528313572474031,2.232033335722747,-1.4972407139551784
2.270065933724527,24.186679590353243,-0.045544538768868756,2.1894328488782784,-1.4338356824705525
2.260944425570247,23.75292884399212,-0.0456705427739336,2.1480746147329848,-1.374312585790549
2.2518095026792357,23.327331454218303,-0.045678686136176594,2.1078992830051626,-1.318336112712478
2.2426832030864503,22.909656402913154,-0.045584309791675943,2.0688512300463593,-1.2656067208875683
2.233584687057908,22.499683453286032,-0.04540085049374706,2.030878266224832,-1.2158562168371525
2.224530592827019,22.097202489564726,-0.04514009181514326,1.9939313709882476,-1.1688439493047036
2.215535345700211,21.702012907214495,-0.04481237945293686,1.9579644525140827,-1.124353522175325
2.2066114271235397,21.31392304903722,-0.04442680631377529,1.9229341292586462,-1.0821899487883269
2.197769609296773,20.93274968300559,-0.043991371953892563,1.8887995310576802,-1.0421771822672945
2.189019160080955,20.55831751812748,-0.043513120204284605,1.8555221177234205,-1.0041559670319018
2.1803680222408377,20.19045875502182,-0.042998258196892424,1.8230655133331883,-0.9679819653634633
2.1718229704712972,19.829012668226515,-0.04245225949851188,1.7913953546198496,-0.933524120112743
2.1633897491578256,19.473825217558495,-0.04187995363620342,1.760479152060334,-0.9006632206372726
2.155073193399637,19.124748686110518,-0.04128560394568136,1.730286162419437,-0.8692906440563962
2.146877335467073,18.781641342703967,-0.04067297537995813,1.7007872716460783,-0.8393072480931807
2.1388054985621565,18.44436712682524,-0.040045393669211116,1.6719548871411918,-0.8106223952772031
2.130860379493622,18.112795354258814,-0.03940579701612954,1.6437628385230725,-0.7831530912281721
2.123044121658298,17.786800441795556,-0.03875678133711349,1.6161862861094864,-0.7568232222228238
2.1153583795332778,17.46626164954281,-0.03810063991308965,1.5892016364179944,-0.7315628793447017
2.107804375722986,17.15106283949518,-0.037439398189826605,1.5627864640582914,-0.7073077582923739
2.1003829514677306,16.841092249143927,-0.03677484436272805,1.536919439454242,-0.6839986254291069
2.0930946114022513,16.53624227900952,-0.036108556292063373,1.5115802618897989,-0.6615808419395163
2.085939563251155,16.236409293078232,-0.035441925218901826,1.4867495974230955,-0.6400039390522628
2.0789253026481616,15.941494417957522,-0.03470068081103171,1.462399153784,-0.6170520215505357
2.0720582324056,15.65140231873173,-0.03397002161458303,1.4385218384739058,-0.5951458187443162
2.065336186671077,15.36604005034857,-0.03325043573064565,1.4151008453576928,-0.5742253434257721
2.0587569118544704,15.085317952677261,-0.03254231243541966,1.3921201313554008,-0.5542347007949141
2.0523180851648317,14.80914950224873,-0.031845954460967295,1.3695643729299265,-0.5351217649974621
2.0460173308359724,14.537451172403411,-0.03116158882762619,1.3474189255232578,-0.5168378846309543
2.0398522343129133,14.27014230128015,-0.030489376402965084,1.3256697857093653,-0.4993376143263567
2.033820354638612,14.007144967123953,-0.029829420340048273,1.3043035558525935,-0.48257846983047015
2.0279192352517463,13.74838387043079,-0.02918177352860994,1.283307411079048,-0.46652070429435033
2.0221464133812743,13.493786222484356,-0.02854644517610783,1.2626690683852764,-0.4511271037197157
2.0164994282015463,13.243281639873459,-0.027923406621174443,1.2423767577237006,-0.4363627997331467
2.0109758278924876,12.996802044609293,-0.027312596469411376,1.2224191949179637,-0.42219509805045385
2.0055731757324944,12.754281569490125,-0.026713925130520764,1.2027855562737302,-0.40859332116407665
2.000289055336821,12.515656468386581,-0.02612727882621705,1.1834654547617052,-0.39552866393750574
1.9951210751411965,12.28086503114443,-0.02555252313002347,1.164448917659807,-0.3829740609248767
1.9900668722189174,12.049847502823383,-0.0249895060927687,1.1457263655506549,-0.370904064353125
1.9851241155095185,11.822546007010423,-0.024438061001221197,1.1272885925789269,-0.3592947318102146
1.9802905085282252,11.598904472964453,-0.023898008811711557,1.1091267478807656,-0.3481235227775098
1.9755637916174846,11.378868566365941,-0.023369160295694354,1.0912323181043613,-0.3373692032287296
1.970941743794925,11.16238562346079,-0.02285131792990052,1.0735971109471716,-0.3270117575932751
1.9664221842459397,10.949404588401972,-0.022344277559953142,1.056213239641014,-0.31703230744911304
1.9620029735036448,10.739875953605715,-0.021847829862996795,1.0390731083215445,-0.30741303637072964
1.9576820143541485,10.533751702951214,-0.021361761631965577,1.0221693982234572,-0.298137120411747
1.953457252500798,10.330985257664153,-0.020885856901538075,1.0054950546471542,-0.2891886637503161
1.9493266770172888,10.13153142473477,-0.020419897933555038,0.9890432746466772,-0.28055263906898575
1.9452921199545417,9.935522021452599,-0.019925672693916374,0.9710507581750369,-0.30713671222372024
1.9413528033458565,9.743100088895257,-0.01946749339293489,0.9531685673983827,-0.3353374182291552
1.9375015875846688,9.554243857781383,-0.01904466421894208,0.93539374374037,-0.3650480978172506
1.9337314783075108,9.368932139143077,-0.018656428552638726,0.9177234426427078,-0.39616444851279853
1.9300356379468364,9.187144301933465,-0.01830197505410464,0.9001549294533991,-0.42858429477832927
1.9264073961193238,9.00886025141882,-0.017980443221020513,0.8826855756930386,-0.4622073629419666
1.9228402589517728,8.83406040828061,-0.01769092845449016,0.8653128556890792,-0.49693505998470444
1.919327917439778,8.662725688354659,-0.017432486665457346,0.8480343435704468,-0.5326702552673991
1.915864254928083,8.494837482935875,-0.01720413845149259,0.8308477106173855,-0.5693170642747831
1.9124433537958683,8.330377639577737,-0.01700487287065529,0.8137507229639839,-0.6067806334437895
1.9090595014251837,8.169328443315987,-0.01683365083618958,0.7967412396535031,-0.6449669251261609
1.9057071955262685,8.011672598245696,-0.01668940815296282,0.7798172110494263,-0.6837825017103318
1.9023811488895945,7.857393209379939,-0.016571058213778043,0.7629766776081263,-0.7231343078944651
1.8990762936311207,7.706473764716904,-0.01647749437095991,0.7462177690222443,-0.7629294500607507
1.8957877849944347,7.558898117439945,-0.016407591995901152,0.7295387037473321,-0.803074971649996
1.8925110047711908,7.4146504681724,-0.016360210236535274,0.7129377889280999,-0.8434776233744015
1.8892415643995433,7.273715347205112,-0.016334193479942173,0.6964134207447898,-0.8840436270343787
1.8859753077991024,7.13607759661015,-0.01632837252446505,0.6799640852048326,-0.9246784316213499
1.8827083140003773,7.001722352148654,-0.01634156546278627,0.6635883594101364,-0.9652864602916046
1.8794368996266648,6.870635024874023,-0.016372578274340098,0.6472849133361899,-1.0057708466852715
1.8761576212870115,6.742801282323828,-0.016420205122191604,0.6310525121657576,-1.0460331589380094
1.8728672779401885,6.618207029184511,-0.016483228346040022,0.6148900192274278,-1.0859731095897323
1.869562913291658,6.496838387301988,-0.016560418139262224,0.5987963995977983,-1.1254882494331309
1.8662418182883476,6.378681674898626,-0.016650531893843874,0.5827707244358273,-1.164473643163479
1.862901533779704,6.263723384842141,-0.01675231319259113,0.5668121761290297,-1.2028215244888456
1.8595398534181342,6.1519501617948364,-0.016864490423105845,0.5509200543440032,-1.240420928135191
1.8561548268775674,6.0433487780515875,-0.01698577498256477,0.5350937830884824,-1.277157295933094
1.8527447634756828,5.937906107851834,-0.017114859036279732,0.5193329189090395,-1.3129120539018715
1.8493082362934317,5.8356090999241275,-0.017250412786230893,0.5036371603680178,-1.3475621569534824
1.8458440868949944,5.73644474799076,-0.017391081198143258,0.48800635896567235,-1.3809795975253052
1.8423514307624718,5.640400058924271,-0.017535480127083957,0.47244053169919437,-1.4130308741225575
1.8388296635725794,5.547462018206378,-0.017682191771838676,0.4569398754797454,-1.4435764154162616
1.835278468457666,5.457617552292181,-0.017829759377295817,0.4415047836622427,-1.4724699552151064
1.8316978244107858,5.370853487427876,-0.017976681091505742,0.42613586498079303,-1.4995578533309122
1.828088016014663,5.287156504407232,-0.01812140286972001,0.4108339652256523,-1.5246783571206743
1.8244496446975698,5.206513088680122,-0.01826231030121389,0.3956001920454571,-1.5476607983628008
1.8207836417458865,5.128909475144486,-0.018397719215619442,0.3804359433109193,-1.5683247201846315
1.8170912833339976,5.054331586860169,-0.018525864903267613,0.3653429395322548,-1.5864789291108052
1.8133742078678847,4.982764966818909,-0.01864488975786096,0.35032326088033067,-1.6019204681062345
1.8096344359802443,4.914194701789157,-0.018752829118544246,0.3353793894171824,-1.6144335079754633
1.8058743935633448,4.848605337128557,-0.01884759505045263,0.32051425718882903,-1.6237881569911554
1.8020969382827392,4.785980781323506,-0.018926957755601274,0.30573130086167694,-1.6297391926537597
1.7983053900826107,4.726304198879713,-0.018988524245686113,0.2910345235762444,-1.6320247257560414
1.7945035662751487,4.669557890059949,-0.019029713828933537,0.2764285646214192,-1.6303648164993454
1.7906958219067675,4.6157231558621525,-0.019047729854877522,0.2619187773565266,-1.6244600768343296
1.7868870962204637,4.564780146580389,-0.01903952700815881,0.24751131546108698,-1.6139903147508348
1.7830829661977043,4.5167076923371425,-0.019001773219434883,0.23321322697137942,-1.5986133082512135
1.7792897083831776,4.471483114188718,-0.0189308049258343,0.21903255451285053,-1.5779638440842227
1.775514370501139,4.429082014895265,-0.018822573894552472,0.20497843842166852,-1.551653226098633
1.771764854811355,4.389478049381722,-0.018672583003287443,0.19106121671377,-1.5192695605717357
1.768050015805776,4.35264267655165,-0.01847580705250185,0.1772925115869496,-1.4803792757156704
1.7643797758470634,4.318544896833611,-0.018226592534623928,0.16368528559345433,-1.434530550070058
1.7607652639189912,4.2871509841939,-0.017918526746096963,0.15025384080366558,-1.3812596364762764
1.757218985167779,4.25842422811446,-0.017544260766025787,0.13701371999073098,-1.3201015069103126
1.7537550329819855,4.23232471121764,-0.0170952610919105,0.12398144897748095,-1.2506068386452436
1.7503893620139148,4.208809162951148,-0.016561448588795324,0.11117403368743667,-1.1723681189202304
1.7471401514724914,4.187830949838837,-0.015930656825439902,0.09860809743568308,-1.0850584842779485
1.7440283059387784,4.169340287512394,-0.015187798511689282,0.08629852582873206,-0.9884875345338546
1.741078170213792,4.153284783847912,-0.014313558738173717,0.07425651081609753,-0.8826779850707558
1.7383185823310758,4.13961043031334,-0.01328232008898813,0.06248702452963953,-0.7679639295368401
1.7357844674993854,4.128263113230805,-0.012058828227916957,0.05098614629570274,-0.6451026047752433
1.733519315145452,4.119190545221841,-0.010592695311417771,0.03973953379395126,-0.5153730271839453
1.7315791790857578,4.1123440928418376,-0.008808665285524242,0.028724990006064384,-0.3806060902891052
1.7300397052927654,4.107679047963227,-0.00658607264439915,0.01792545878003484,-0.2430633048060792
1.7290113236392748,4.1051493574777105,-0.00369774389050697,0.007371446075122821,-0.10508420369682273
