x,y,v_x,v_y,omega
2.375,32.48,0.0,2.2564102564102564,-6.530612244897959
2.37385637211366,32.010908501521115,-0.010891694155619107,2.211127824340979,-6.196942429710225
2.3705631209091718,31.551167859589196,-0.020472603029983702,2.167354479772558,-5.8881952898564265
2.365379828250025,31.100470562363864,-0.02889208896189245,2.125000731897281,-5.601887650739529
2.3585366877880056,30.658527056319844,-0.03628067734305076,2.0839850399505098,-5.335836438555714
2.35023817669604,30.225064180400423,-0.04275276162805183,2.0442328259487463,-5.08811625478058
2.340666206139614,29.79982379107007,-0.048408862718863306,2.0056756438641212,-4.857023854246576
2.329982835229094,29.3825615484938,-0.05333752690513263,1.9682504759098782,-4.64104824796688
2.318332617415619,28.973045839578614,-0.05761692846130102,1.93189913280619,-4.43884541862594
2.3058446358538176,28.571056817970135,-0.06131622927013915,1.8965677396555274,-4.24921684152328
2.2926342743630106,28.176385544568518,-0.06449673730897489,1.8622062927408367,-4.071091162493729
2.278804762689349,27.788833214910497,-0.0672128976782759,1.828768275430777,-3.903508508347116
2.2644485283677422,27.408210462009293,-0.06951314347988395,1.7962103236282831,-3.745607003022015
2.2496483822749758,27.03433672506582,-0.07144062883217901,1.7644919329762407,-3.596611140097709
2.2344785607035975,26.667039675951546,-0.07303386232380656,1.7335752014454104,-3.4558217241542906
2.2190056432774985,26.306154696583818,-0.07432725601999349,1.7034246020567771,-3.322607143171401
2.203289363125692,25.951524401321333,-0.07535160256863807,1.6740067813954622,-3.196395774335172
2.1873833233143034,25.602998199342906,-0.07613449087315736,1.6452903803038472,-3.0766693582864217
2.1713356315167887,25.2604318926689,-0.07670066910317502,1.6172458737342783,-2.9629572035363667
2.1551894632064537,24.92368730606817,-0.07707236242382438,1.5898454272250533,-2.8548311046977903
2.138983562225685,24.5926319455843,-0.07726955167873195,1.5630627678594236,-2.75190087626623
2.1227526863765513,24.267138682830257,-0.07731021831301949,1.5368730678933769,-2.653810418673241
2.1065280046501673,23.947085462553154,-0.07721056003349411,1.5112528395076035,-2.5602342458042977
2.0903374518370335,23.632355031271736,-0.07698518104397231,1.4861798393630392,-2.4708744135903227
2.0742308576575863,23.322843420504434,-0.07641095399838232,1.4615497869922252,-2.379268846446554
2.0582523465787346,23.018450510998374,-0.07576534199068197,1.437430303541693,-2.2920221639856764
2.0424159838041787,22.719071104075763,-0.07505716062413541,1.413802143340316,-2.2088735179832018
2.026734076383341,22.424603942568964,-0.07429433862193895,1.390647013867281,-2.1295806654243346
2.011217350021121,22.13495151703756,-0.07348400768491686,1.3679475150032356,-2.05391842717032
1.9958751080291162,21.85001988424294,-0.07263258271512953,1.3456870830407797,-1.9816772919344572
1.980715374324942,21.569718496928,-0.07174583351510158,1.3238499390062333,-1.9126621501954109
1.9657450221677668,21.29396004403846,-0.07082894893418444,1.3024210408941477,-1.8466911444815493
1.9509698901267027,21.022660300601352,-0.06988659431404569,1.2813860394592698,-1.7835946240322884
1.936394886610651,20.755737986547032,-0.06892296298168483,1.2607312372485246,-1.7232141932139913
1.9220240841404916,20.493114633824113,-0.06794182244840441,1.2404435505887927,-1.6654018442668974
1.9078608044144472,20.234714461213365,-0.06694655589487626,1.2205104742754795,-1.6100191660096044
1.8939076951027949,19.980464256297516,-0.06594019945419272,1.2009200487326406,-1.5569366210490114
1.8801667992068598,19.730293264089575,-0.06492547574519014,1.181660829438195,-1.5060328848535858
1.8666396177277143,19.484133081863632,-0.06390482405619538,1.1627218584279324,-1.4571942407610423
1.8533271663107789,19.24191755976916,-0.06288042753366561,1.1440926377099214,-1.4103140256206537
1.8402300264622826,19.003582706843748,-0.06185423769010904,1.125763104436858,-1.365292121326241
1.8273483918712239,18.76906660206958,-0.06082799651044948,1.1077236076980832,-1.3220344879877608
1.8146821103151016,18.538309310146683,-0.059803256405000366,1.0899648868056844,-1.2804527349253079
1.8022307215784372,18.311252801681242,-0.058781398229898765,1.0724780509604268,-1.240463726056264
1.7899934917692644,18.087840877510086,-0.05776364757174843,1.055254560193442,-1.2019892165902046
1.777969444379678,17.86801909690346,-0.05675108947192876,1.0382862074887151,-1.1649555182522668
1.7661573884016706,17.651734709407183,-0.05574468174719277,1.021565101999635,-1.1292931905284946
1.7545559437783327,17.43893659010279,-0.054745267046498874,1.0050836532802603,-1.0949367556701415
1.7431635644426806,17.22957517808021,-0.053753583769235114,0.9888345564586322,-1.0618244354114754
1.7319875032065704,17.023764412460316,-0.05268509466991056,0.9712679732546367,-1.0604503202745394
1.721032279323155,16.821629460593464,-0.05165037088642682,0.9538268064296523,-1.0614851295097165
1.710290806842444,16.623144368691754,-0.05064936702510498,0.9365074021580494,-1.0647945280087308
1.6997560215974379,16.428283934010675,-0.0496819210225748,0.9193062614712986,-1.0702482156543514
1.6894209046516164,16.237023673046334,-0.048747764175723365,0.9022200334272076,-1.077719623388052
1.6792785037230953,16.049339791110356,-0.04784653038162077,0.885245508820211,-1.0870856208999404
1.6693219527453824,15.865209153171538,-0.04697776464421587,0.8683796144066347,-1.0982262347057365
1.6595444897132405,15.684609255858518,-0.04614093089999303,0.8516194076221286,-1.111024375427761
1.6499394729516386,15.507518200522174,-0.045335419210501014,0.8349620717716156,-1.1253655731407508
1.6405003959361402,15.333914667260263,-0.044560552365674445,0.8184049116751589,-1.141137719679179
1.6312209007842404,15.163777889809975,-0.04381559193813369,0.8019453497561508,-1.158230816830886
1.6220947905290963,14.997087631216655,-0.04309974382514297,0.7855809225611915,-1.176536729362436
1.6131160402797384,14.833824160188808,-0.042412163311600456,0.7693092777040003,-1.19594894183479
1.6042788073651684,14.673968228050875,-0.0417519596843025,0.7531281712287089,-1.2163623181736969
1.5955774405537189,14.517501046205808,-0.04111820042474271,0.7370354653909688,-1.2376728629576428
1.5870064884336115,14.364404264019615,-0.04050991500485094,0.7210291268584933,-1.259777483377166
1.578560707035833,14.214659947039195,-0.03992609830732458,0.7051072253359966,-1.2825737508027317
1.570235066776163,14.0682505554535,-0.03936571368953173,0.689267932623023,-1.3059596608739765
1.5620247587894907,13.925158922705805,-0.03882769570735012,0.6735095221169354,-1.329833390990743
1.5539252007263828,13.7853682341619,-0.03831095251272405,0.6578303687773956,-1.3540930540456821
1.545932042079251,13.6488620057351,-0.03781436793615002,0.6422289495730894,-1.3786364471890133
1.5380411691033702,13.515624062364118,-0.03733680326271628,0.6267038444362791,-1.4033607943580144
1.5302487093964767,13.385638516233918,-0.03687709870769643,0.6112537377560915,-1.4281624812367206
1.522551036199693,13.258889744622557,-0.03643407459500473,0.5958774204473292,-1.4529367812349399
1.514944772482119,13.135362367248582,-0.03600653223903304,0.5805737926381435,-1.4775775709899646
1.5074267948716358,13.015041222983722,-0.03559325452747383,0.5653418670271964,-1.501977033799414
1.499994237495287,12.89791134578411,-0.035193006199656617,0.5501807729691,-1.5260253492898717
1.4926444957941,12.783957939679969,-0.03480453381164834,0.5350897613560531,-1.5496103675142645
1.4853752303794128,12.67316635264833,-0.03442656537584925,0.5200682103738313,-1.5726172655527595
1.478184371000753,12.565522049175794,-0.034057809659006205,0.5051156322217508,-1.5949281845697425
1.4710701206991244,12.461010581298108,-0.03369695511840995,0.4902316808990594,-1.6164218451569117
1.4640309602242862,12.359617557880384,-0.033342668451477264,0.47541616117451907,-1.6369731386752049
1.4570656528003503,12.261328611875516,-0.03299359272886577,0.46066903887185195,-1.6564526922042473
1.4501732493308777,12.166129365268738,-0.032648345075636194,0.4459904526212829,-1.6747264046288968
1.4433530941427777,12.074005391382606,-0.0323055138586482,0.431380727246629,-1.6916549513548182
1.436604831377843,11.984942174179004,-0.03196365533120569,0.4168403889781472,-1.7070932551722284
1.429928412151901,11.898925064152447,-0.0316212896777654,0.40237018270336145,-1.7208899209119235
1.423324102614572,11.815939230362062,-0.03127689639203532,0.38797109149079745,-1.732886631806532
1.416792493057788,11.73596960809791,-0.030928908910670468,0.3736443586439673,-1.742917505947096
1.4103345082389556,11.659000841621129,-0.03057570841154147,0.35939151256347823,-1.7508084120006149
1.4039514191054443,11.585017221357283,-0.030215616669517314,0.3452143947112582,-1.7563762445537727
1.3976448561316432,11.514002614859837,-0.029846887842874568,0.3311151909786987,-1.7594281612472265
1.3914168245091139,11.445940390797894,-0.029467699038358032,0.31709646675410696,-1.7597607865086466
1.3852697214656948,11.380813335163399,-0.029076139470396233,0.3031612059553728,-1.7571593905237999
1.3792063560326948,11.318603558844142,-0.028670197986745534,0.2893128542280317,-1.751397057582489
1.3732299716333238,11.259292395679505,-0.028247748673929592,0.2755553663875433,-1.7422338657704735
1.3673442719343272,11.202860290120999,-0.027806534173657162,0.261893257979172,-1.7294161110872868
1.3615534504925473,11.149286673680898,-0.027344146224246434,0.2483316604979714,-1.712675624763228
1.3558622248480603,11.098549829502613,-0.02685800277086676,0.23487637929522734,-1.6917292546521239
1.3502758758797315,11.050626744673497,-0.02634532073702602,0.22153395241064863,-1.6662786126202203
1.3448002934691374,11.005492950394384,-0.025803083173393002,0.2083117073904274,-1.6360102333128381
1.3394420298482397,10.963122350920166,-0.02522799893039442,0.1952178114116596,-1.6005963502674954
1.3342083624867571,10.92348704343382,-0.024616452131345036,0.18226130750591482,-1.5596965792765352
1.3291073690873454,10.88655713290889,-0.023964437386862006,0.16945212606485388,-1.5129609140674432
1.3241480183254626,10.852300548816427,-0.023267474631068624,0.1568010557681518,-1.4600345950078253
1.3193402815899073,10.82068287457976,-0.022520494278980736,0.144319651247712,-1.4005656167939717
1.3146952734480453,10.79166720636837,-0.021717678500658172,0.13202004600362915,-1.3342159008749803
1.310225432332483,10.765214065526617,-0.020852236885649553,0.11991462867971688,-1.2606774637228346
1.3059447587096158,10.741281398808052,-0.01991608333213142,0.10801553054471559,-1.1796952194193062
1.3018691367602924,10.719824712095111,-0.018899363804281928,0.096333866721389,-1.0910982457556255
1.2980167788581887,10.700797394245207,-0.017789759072895824,0.08487868423007353,-0.9948411520993317
1.2944088520446515,10.684151292520315,-0.016571448675077503,0.07365561791175419,-0.8910560982431365
1.2910703757323312,10.669837587851646,-0.015223563823210873,0.0626653789327063,-0.78011316153199
1.288031526886327,10.657807964983554,-0.01371785375778178,0.0519024579062749,-0.6626810072212013
1.2853295711449155,10.64801594338633,-0.012015058065183565,0.04135489063872491,-0.5397704840847622
1.2830118153305492,10.640417974268459,-0.010058806833542688,0.031006720007664385,-0.412732380011713
1.2811404702906444,10.634973403053195,-0.007763526879837635,0.020846339185338264,-0.28317318635376787
1.2798021177245371,10.631641153711548,-0.004982688035470447,0.010889368830337663,-0.1527589540965597
1.2791345570777402,10.630364997713073,-0.0013750324102152532,0.001264497821802591,-0.022929475781543668
