x,y,v_x,v_y,omega
2.375,32.48,0.0,3.435897435897436,-7.26530612244898
2.3725003172267485,31.70119282065077,-0.021736371941318264,3.336338906269753,-6.678240003243264
2.3654584057852865,30.94466985756541,-0.03949764059313218,3.242121642298573,-6.163112353649694
2.354707545009863,30.209256251718106,-0.0539881052801155,3.1527792781127864,-5.708610932764494
2.340934647654272,29.493877630363322,-0.06577621955111361,3.0679043858418664,-5.305522714561432
2.3247081661024844,28.797547726731047,-0.07532362002964663,2.9871382544387926,-4.946289281855103
2.3065001148664708,28.119358089132525,-0.08300726028351599,2.9101629420700736,-4.624667926145104
2.286703585822991,27.458469426089533,-0.08913647052934831,2.8366949974342086,-4.335470525257335
2.2656467752007856,26.81410425222889,-0.09396623053330797,2.7664804274409356,-4.074360406401053
2.2436042867542283,26.185540582831813,-0.09770758204545435,2.699290610794524,-3.8376929448144654
2.220806291197508,25.57210648445192,-0.1005358575781978,2.6349189403349813,-3.622389494437866
2.1974459865114038,24.973175332316735,-0.1025972266487958,2.5731780347535835,-3.425836960288962
2.1736857029366634,24.388161657209068,-0.10401393487068601,2.5138974009652664,-3.2458072643503653
2.1496619206271337,23.816517488488934,-0.10488851999479185,2.4569214574706737,-3.0803923652465346
2.125489410310795,23.257729118120103,-0.10530722188641083,2.40210785008436,-2.9279515254961845
2.1012646631389034,22.711314224572156,-0.10534275352134485,2.3493260068542976,-2.78706828658197
2.0770687417838056,22.176819306378142,-0.10505656260994113,2.2984558904849797,-2.6565151859852727
2.0529696583014463,21.653817383721734,-0.10450068506274468,2.249386915222908,-2.5352246838543016
2.029024363489612,21.14190593327008,-0.10371926982277278,2.2020170017479823,-2.4222650970985384
2.005280416101277,20.640705026970302,-0.10274983790187836,2.156251748684886,-2.3168205919670606
1.9817773873062317,20.149855649992666,-0.10162432553329914,2.1120037032945493,-2.218174481809869
1.9585480454727382,19.669018176657943,-0.10036995127968738,2.069191717007385,-2.125695228822668
1.9356193580857883,19.19787098620119,-0.0990099390416168,2.0277403739209277,-2.038824667537654
1.9130133409864223,18.736109202729512,-0.09756412269200113,1.9875794823545105,-1.9570680613913733
1.8907477797660164,18.283443545827218,-0.09604945313761579,1.9486436211437121,-1.879985677687593
1.8688368438155876,17.839599280025844,-0.09448042469219872,1.9108717336508145,-1.8071856250706886
1.8472916100065642,17.404315252850353,-0.09286943451669943,1.8742067635273971,-1.7383177445744955
1.82612051010432,16.977343012423653,-0.09122708637238192,1.8385953271395479,-1.673068382970492
1.805329713661695,16.55844599669902,-0.08956244791131299,1.8039874182920477,-1.6111559074767317
1.7849234562059615,16.14739878732362,-0.08788326909506675,1.7703361414940377,-1.5523268454295038
1.7649043209391926,15.743986421942278,-0.08619616800727083,1.7375974705176347,-1.4963525524496213
1.7452734808549515,15.348003759448243,-0.08450678924699993,1.7057300294304878,-1.4430263288822178
1.7260309070824837,14.959254893294275,-0.08281993920924104,1.6746948936474901,-1.3921609175819518
1.7071755483621462,14.577552608506252,-0.08113970183717306,1.6444554088570669,-1.343586327029839
1.6887054857994745,14.20271787850427,-0.07946953783823199,1.614977025942769,-1.297147932759603
1.670618066413316,13.834579398242255,-0.07781236986749601,1.5862271502486793,-1.2527048175033302
1.652910018464045,13.472973150534315,-0.07617065577833594,1.5581750037334066,-1.2101283166283314
1.6355775511033586,13.117742002751353,-0.07454645170589577,1.5307914987271338,-1.1693007405619946
1.6186164405129917,12.768735331350094,-0.0729414664712061,1.5040491221533747,-1.1301142501762687
1.6020221043841243,12.425808671943866,-0.07135710856242293,1.4779218292051293,-1.092469864679444
1.5858172291336614,12.088827526343675,-0.06955485013725585,1.4523490021008874,-1.0493509820091314
1.5700218365165037,11.757662620564428,-0.06779639001193971,1.4273458307621136,-1.0084189687038099
1.5546258839664269,11.432185511993456,-0.06608145824959835,1.4028898959419933,-0.9695347599402909
1.5396194075819194,11.112272783031056,-0.06440964074611931,1.3789599211223678,-0.9325698145612571
1.524992552417236,10.797805786665556,-0.06278040416416965,1.3555356994472008,-0.8974051931870637
1.5107355974429726,10.4886704082122,-0.061193117351165616,1.332598026234141,-0.8639307277874094
1.4968389759289116,10.184756841989934,-0.05964706972762561,1.3101286365681661,-0.8320442726014857
1.4832932918979704,9.885959381818452,-0.05814148706316826,1.2881101475316679,-0.8016510275252727
1.4700893332108766,9.592176224315267,-0.05667554499851598,1.2665260046699474,-0.7726629261516998
1.45721808176456,9.303309284060195,-0.05524838062162992,1.2453604323306775,-0.744998081576776
1.4446707212213048,9.019264019773793,-0.05385910236319789,1.2245983875510715,-0.7185802838922669
1.4324386426289366,8.739949270727667,-0.05250679844000187,1.2042255171978349,-0.693338543989811
1.4205134482433608,8.46527710266923,-0.05119054404326568,1.1842281180929246,-0.6692066789167679
1.40888695382254,8.195162662601984,-0.049909407442134644,1.1645930998831153,-0.6461229345627065
1.3975511896245247,7.929524041815547,-0.048662455149301245,1.1453079504337167,-0.6240296419276303
1.3864984003106264,7.668282146607787,-0.04744875627590119,1.1263607035468177,-0.6028729036376477
1.3757210439275438,7.411360576185324,-0.04626738618568708,1.1077399088224131,-0.5826023077384269
1.3652117901186598,7.158685507268601,-0.045117429543739644,1.0894346034969258,-0.5631706661179323
1.35496351769427,6.910185584964012,-0.04399798284225745,1.0714342861081858,-0.5445337751932269
1.3449693116727872,6.665791819498931,-0.042908156474984964,1.0537288918490415,-0.5266501967463817
1.3352224598895936,6.425437488445677,-0.0418470764223497,1.0363087694836088,-0.509481057015907
1.3257164492568887,6.189058044088313,-0.04081388560117084,1.019164659710859,-0.49298986234622727
1.316444961746299,5.956591025611523,-0.03980774492569586,1.002287674869924,-0.47714232987168126
1.307401870155979,5.7279759758141005,-0.038827834120564474,0.9856692798902617,-0.4619062318660363
1.298589821971221,5.503266110677565,-0.037798671833853464,0.9683295473839523,-0.4669099250648551
1.2900095553315185,5.282529521145175,-0.03681234242442896,0.951119057245525,-0.4743687057657019
1.28165125389837,5.065736931164878,-0.035868539602950264,0.9340338991048718,-0.48414720684307544
1.2735051848795227,4.852859945114467,-0.034966843169635276,0.9170703274204484,-0.4961145924226537
1.2655617239589554,4.643871010810297,-0.034106730052689785,0.9002247534853705,-0.5101442286254121
1.257811377794835,4.438743384284759,-0.0332875844179218,0.8834937380410551,-0.5261133686447866
1.2502448042908312,4.23745109619669,-0.03250870692124168,0.8668739844638901,-0.5439028507369568
1.242852830830366,4.0399689197465065,-0.031769323169761624,0.8503623324942168,-0.5633968077754996
1.235626470648901,3.846272339974412,-0.031068591451670846,0.8339557524805189,-0.58448238708271
1.2285569375061172,3.6563375243259095,-0.030405609789928324,0.8176513401151448,-0.6070494793012967
1.2216356588077204,3.470141294373928,-0.029779422370042642,0.8014463116412043,-0.6309904551123371
1.2148542873155734,3.287661098591137,-0.029189025387757445,0.7853379995134981,-0.656199908638604
1.2082047115747774,3.1088749860696403,-0.02863337235829587,0.769323848499502,-0.6825744063968427
1.2016790651772096,2.933761581088099,-0.028111378924903247,0.7534014122095647,-0.710012240678382
1.1952697349727615,2.762300058428405,-0.02762192720073199,0.737568350048644,-0.7384131862446008
1.1889693683320979,2.594470119345523,-0.02716386967460437,0.7218224245851133,-0.7676782592221465
1.182770879558117,2.4302519680946553,-0.02673603270783786,0.7061614993354897,-0.7977094770722167
1.176667455537415,2.2696262889198238,-0.026337219646094052,0.6905835369673873,-0.828409618488393
1.1706525607178992,2.112574223407009,-0.025966213567086054,0.6750865979266519,-0.8596819820480487
1.1647199414942633,1.9590773481031114,-0.025621779681921836,0.6596688394985287,-0.8914301424027709
1.1588636300792856,1.809117652299335,-0.025302667404841096,0.6443285153169211,-0.9235577027429378
1.1530779479358735,1.662677515873746,-0.025007612103090562,0.629063975340384,-0.9559680422098868
1.147357508842419,1.5197396870829714,-0.024735336535644314,0.6138736663185339,-0.9885640568552124
1.1416972216623866,1.3802872601868543,-0.02448455198637745,0.5987561327781422,-1.0212478926597484
1.136092292888131,1.2443036527824596,-0.024253959094106915,0.583710018564411,-1.053920669023769
1.1305382290287715,1.1117725827148632,-0.024042248378582733,0.5687340689799196,-1.086482191023847
1.125030838912564,0.9826780444214371,-0.02384810045800351,0.5538271335716214,-1.118830648599591
1.1195662359756557,0.8570042845538026,-0.023670185949894916,0.538988169625201,-1.1508623006841312
1.1141408406114526,0.7347357767067351,-0.02350716504317647,0.5242162464362589,-1.1824711421247975
1.1087513826581246,0.6158571950660381,-0.023357686724892805,0.5095105504393616,-1.2135485510542683
1.1033949041061233,0.5003533867672516,-0.023220387640335422,0.4948703912892127,-1.2439829141672616
1.0980687621130782,0.3882093427336102,-0.023093890560056406,0.4802952090033059,-1.2736592271339702
1.0927706324202,0.2794101667345714,-0.022976802421493546,0.4657845822927057,-1.3024586671403042
1.087498513272482,0.17394104237476427,-0.0228677119064907,0.45133823822735775,-1.3302581342895745
1.0822507299547237,0.07178719768705832,-0.02276518650879774,0.43695606340489235,-1.3569297583357969
1.077025940066895,-0.027066133038523787,-0.022667769037540687,0.4226381168175719,-1.382340366954043
1.071823139675824,-0.12263375060627624,-0.02257397349351038,0.40838464464116886,-1.4063509115018917
1.0666416704959254,-0.2149305359182847,-0.022482280244739177,0.39419609720239773,-1.4288158460089622
1.061481228269942,-0.3039714991646534,-0.022391130415987292,0.38007314841820977,-1.4495824549801135
1.0563418725418916,-0.38977183380742986,-0.022298919393146384,0.36601671804072067,-1.4684901255585758
1.0512240380389828,-0.47234697604692855,-0.022203989327799132,0.35202799708533594,-1.4853695597361947
1.0461285479077826,-0.5517126705512965,-0.02210462050872295,0.33810847686571216,-1.500041922718527
1.0410566290830747,-0.6278850433329879,-0.021999021445259025,0.324259982105508,-1.5123179243973226
1.0360099301065402,-0.7008806827687053,-0.021885317481127774,0.31048470863984073,-1.5219968323618025
1.030990541757847,-0.7707167298813786,-0.021761537724898458,0.29678526625295376,-1.5288654172974883
1.02600102091459,-0.8374109791299702,-0.021625600042555433,0.28316472721303937,-1.5326968354186006
1.021044418122143,-0.9009819910796324,-0.021475293804810863,0.26962668104489856,-1.5332494583980767
1.0161243094332906,-0.9614492184400021,-0.02130826001129669,0.2561752960017681,-1.5302656700290578
1.011244833175596,-1.0188331470451644,-0.021121968316482262,0.24281538752137363,-1.523470661927177
1.006410732429688,-1.0731554533764083,-0.02091369034358829,0.229552493619885,-1.5125712799339368
1.0016274041661961,-1.1244391801519384,-0.02068046846938577,0.2163929566021323,-1.497255001372545
0.9969009562122522,-1.1727089312551442,-0.02041907895621283,0.20334400951272075,-1.4771891650962663
0.9922382735312802,-1.217991086734294,-0.02012598783484638,0.1904138642189974,-1.4520206373609024
0.9876470957523609,-1.26031403761408,-0.019797297199235595,0.17761179560520823,-1.4213761855431843
0.9831361085596033,-1.2997084385618365,-0.019428678389959965,0.16494821263616133,-1.3848639607199176
0.9787150525818766,-1.3362074736776037,-0.0190152866337506,0.15243470141397236,-1.3420766756761824
0.9743948550296777,-1.3698471262956957,-0.018551648602761327,0.1400840170042428,-1.2925973284992025
0.9701877918720372,-1.4006664369639452,-0.01803150928976529,0.12790998880661097,-1.2360086885346284
0.9661076924276599,-1.428707723769712,-0.017447616313515317,0.11592728776524698,-1.1719082530514262
0.9621702048299536,-1.454016724888298,-0.016791406275234167,0.10415098283115977,-1.0999309989468355
0.9583931514715394,-1.4766426039616292,-0.016052535971846936,0.09259579171957148,-1.0197829232972906
0.9547970206963008,-1.496637735495156,-0.015218166421531773,0.08127491726760787,-0.9312888422109231
0.951405668500132,-1.514057164864134,-0.014271852675588819,0.07019838159305389,-0.8344575680000559
0.9482473478146201,-1.5289576302381604,-0.013191805459297004,0.05937088252889441,-0.7295650617186455
0.9453562535495268,-1.541396075021673,-0.011948144671948251,0.048789506892943264,-0.6172490843697722
0.9427748930892466,-1.5514277339194393,-0.01049846802614143,0.03844230960937446,-0.4985942763642067
0.9405578421872227,-1.5591042536037634,-0.008780235469717925,0.028310035471694903,-0.37516386959023446
0.9387781398303503,-1.5644731143689583,-0.006695437198738281,0.018375710312595106,-0.24891181870468085
0.937540291454064,-1.5675816338377047,-0.004068461725489541,0.008654893763474582,-0.12190840427883895
