x,y,v_x,v_y,omega
2.375,32.48,0.0,3.4871794871794872,-3.1020408163265305
2.3742529085178834,31.825646664072625,-0.007864120864385806,3.4007503646875814,-2.8900071585767733
2.3721299496013546,31.187358435308763,-0.014482815099074904,3.318073095984657,-2.699763415509474
2.3688497619725766,30.564446680778744,-0.020045475730165255,3.2388927411734403,-2.52842153425746
2.364597957263958,29.956268995311433,-0.024710363307926086,3.1629776321666725,-2.373544014117882
2.359532503126066,29.362225038659,-0.02861020656462481,3.0901166483852514,-2.2330643310166263
2.353788146623215,28.781752852424837,-0.031856703991695864,3.0201168909217313,-2.1052229449702344
2.3474800645095946,28.214325587818585,-0.03454416036220814,2.952801683880916,-1.9885155511667232
2.340706887626148,27.65944858740402,-0.03675243841091046,2.8880088467986806,-1.8816510114225367
2.3335532162654333,27.116656773576043,-0.03854936538608547,2.825589193495841,-1.7835169845225969
2.3260917197242224,26.585512304154065,-0.03999270346876923,2.7654052214723372,-1.6931517135200167
2.3183848947840926,26.06560246165703,-0.04113176958522606,2.7073299627070164,-1.609720762692247
2.3104865433251756,25.556537747858943,-0.04200877208758506,2.6512459720096597,-1.532497753348664
2.3024430177850688,25.05795015936016,-0.0426599178082789,2.597044433240679,-1.4608483455761965
2.2942942740417807,24.569491623333867,-0.04311633212106638,2.544624367036094,-1.3942168666156465
2.2860747640076546,24.09083257546252,-0.04340482613289605,2.493891926346534,-1.332115106476554
2.2778141943733536,23.621660664474483,-0.043548538438690276,2.4447597682643836,-1.2741128955200607
2.269538173231363,23.161679569713073,-0.04356747358226528,2.397146492382028,-1.2198301529952182
2.261268762500112,22.71060791988576,-0.04347895516774421,2.350976137379164,-1.1689301543838317
2.2530249509784777,22.26817830260426,-0.04329800821787992,2.3061777287419205,-1.1211138122977955
2.244823060341734,21.834136355579375,-0.04303768269521024,2.262684871520004,-1.0761148031853554
2.236677094330688,21.408239931412453,-0.04270932794738234,2.2204353828686445,-1.0336954022416378
2.228599039696227,20.990258328856108,-0.04232282609957236,2.1793709598297446,-0.9936429132323161
2.220599126070893,20.57997158422378,-0.04188679100921174,2.139436878405281,-0.9557665996303013
2.212686050790856,20.177169817329236,-0.04140873825432978,2.1005817204846444,-0.9198950394728009
2.2048671737407486,19.781652626949146,-0.04089523069417169,2.062757125621589,-0.8858738394062987
2.197148686503904,19.39322853133742,-0.04035200337788048,2.025917565028148,-0.8535636540799124
2.1895357594426517,19.01171444978987,-0.03978407095108547,1.9900201354723717,-0.8228384658318599
2.1820326697837644,18.636935221670978,-0.03919582019509659,1.9550243710422937,-0.7935840868536376
2.17464291332395,18.26872315967915,-0.0385910899082138,1.9208920709769353,-0.7656968520023593
2.1673693019839306,17.906917634448998,-0.03797323998672904,1.8875871419720427,-0.7390824753958429
2.160214049114436,17.551364687874567,-0.0373452112711082,1.8550754535482812,-0.71365504805405
2.1531788441831017,17.201916672790944,-0.03670957747977748,1.823324705226692,-0.6893361572947175
2.1462649182392584,16.858431916877016,-0.0360685903501554,1.7923043043936242,-0.666054111472048
2.1394731013569808,16.520774408843124,-0.0354242189369745,1.761985253857829,-0.6437432560637376
2.1328038730897716,16.188813505146843,-0.034778183875752336,1.7323400482082882,-0.6223433691436799
2.126257406828095,15.86242365564047,-0.03413198729979169,1.7033425781745952,-0.6017991259908678
2.119833608829761,15.54148414669785,-0.03348693899846051,1.6749680422740076,-0.5820596240329575
2.1135321525895487,15.225878860497122,-0.03284417931956361,1.6471928651020724,-0.5630779605496675
2.1073525091257475,14.915496049252045,-0.03220469924676934,1.619994621688203,-0.5448108566029097
2.1012939736851997,14.610228123289158,-0.031569358022152674,1.5933519673948238,-0.5272183215472048
2.0953556893030374,14.309971451962138,-0.030938898632188745,1.5672445728895916,-0.5102633532302874
2.089536667596986,14.0146261764799,-0.03031396143150892,1.5416530637655337,-0.4939116696404054
2.083835807127579,13.72409603380186,-0.029695096141196725,1.5165589644243784,-0.478131468310764
2.0782519096136634,13.438288190823467,-0.029082772426336365,1.491944645874497,-0.46289321026710545
2.0727883824933206,13.1571136363109,-0.028428039366742673,1.4677875068893662,-0.4467943051969587
2.067447978970238,12.880486452347302,-0.027786734560445617,1.4440775874643033,-0.43140163892638356
2.062228151868395,12.608323129407545,-0.02715881388000732,1.4207994961120745,-0.41667610758865975
2.0571263660090056,12.340543018413126,-0.026544195166197486,1.3979385143554843,-0.4025811816319825
2.0521401049017776,12.077068206376886,-0.02594276385725231,1.3754805597101885,-0.3890827093575985
2.04726687643268,11.817823398851559,-0.025354377922726497,1.3534121510827344,-0.37614873745172905
2.042504217672273,11.562735808740587,-0.02477887218681495,1.3317203764011611,-0.3637493468717114
2.0378496989135697,11.311735051062918,-0.02421606211532883,1.3103928623111543,-0.3518565026209924
2.0333009270351465,11.064753043293791,-0.02366574713122876,1.2894177457849247,-0.34044391610163427
2.0288555482737025,10.821723910931457,-0.023127713515550544,1.2687836475028005,-0.3294869188693695
2.024511250480089,10.582583897965172,-0.02260173694353877,1.2484796468791408,-0.3189623467371574
2.0202657649239826,10.347271281943254,-0.02208758469968831,1.2284952586147306,-0.30884843328054196
2.0161168677045564,10.115726293361451,-0.021585017610060594,1.208820410667385,-0.299124711893535
2.01206238081767,9.887891039111636,-0.02109379172558563,1.1894454235412009,-0.28977192562868737
2.00810017292407,9.663709429748955,-0.020613659785992177,1.1703609908028194,-0.280771944130702
2.0042281598578082,9.44312711035236,-0.020144372490449144,1.151558160740279,-0.27210768704048377
2.0004443049094163,9.226091394768805,-0.01968567959788503,1.1330283190866255,-0.2637630533068527
1.9967466189142815,9.01255120304561,-0.019237330877220897,1.1147631727364524,-0.25572285589711
1.9931331601730364,8.802457001868689,-0.01879907692535656,1.096754734389041,-0.24797276144596203
1.9896020342276062,8.595760747836334,-0.018370669868646262,1.0789953080567842,-0.2404992344256164
1.9861513935137185,8.392415833409633,-0.017951863961751767,1.0614774753821858,-0.23328948545873288
1.9827794369082192,8.192377035390788,-0.017542416096135507,1.0441940827109266,-0.22633142343082227
1.979484409187329,7.995600465790375,-0.017142086229025893,1.0271382288723612,-0.2196136110900891
1.9762646004100408,7.802043524953376,-0.016750637742427098,1.0103032536223475,-0.213125223850975
1.9731183452391499,7.611664856822127,-0.016367837740635185,0.9936827267065701,-0.20685601154313404
1.9700472092007877,7.424622604819238,-0.015959910031598207,0.9751830838501787,-0.24216402323623248
1.9670499040665657,7.241085228414654,-0.015590670328634405,0.9567892993559477,-0.2788160003815764
1.9641191778093676,7.061032873757004,-0.015259079747135215,0.9384986444088008,-0.3167102893247727
1.9612479792959232,6.884446195605708,-0.014964062499647336,0.9203084940258734,-0.3557470015560956
1.958429464885416,6.711306337902361,-0.014704510242534106,0.9022163239040951,-0.39582779423094533
1.9556570042418282,6.541594914907705,-0.014479286005756835,0.8842197076185823,-0.43685565303257895
1.9529241854367125,6.3752939928379675,-0.014287227732303025,0.8663163141681307,-0.478734676452076
1.9502248194143108,6.212386071934663,-0.014127151450873813,0.8485039058666617,-0.5213698605455488
1.947552943886728,6.052854068902025,-0.013997854102628831,0.8307803365821478,-0.5646668832061063
1.9449028267231738,5.896681299645621,-0.01389811604004767,0.8131435503273793,-0.6085318869575931
1.942268968894108,5.743851462244574,-0.013826703213277605,0.7955915802099535,-0.6528712592381064
1.9396461070284627,5.5943486200881765,-0.013782369056670853,0.7781225477521364,-0.6975914090931213
1.9370292156399525,5.448157185105217,-0.013763856085543905,0.7607346625948068,-0.7425985391399739
1.9344135090768295,5.305261901011367,-0.01376989721048759,0.7434262226036065,-0.7877984115965988
1.9317944432483232,5.165647826496048,-0.01379921677378877,0.7261956143997589,-0.8330961070868147
1.9291677171803956,5.0293003182654985,-0.013850531309659747,0.7090413143428588,-0.8783957748409634
1.9265292744534155,4.896205013853081,-0.013922550026973892,0.6919618899983697,-0.9236003728030932
1.9238753045748993,4.76634781410101,-0.014013975010036166,0.6749560021287025,-0.9686113960327251
1.9212022443416403,4.639714865209683,-0.014123501129531806,0.6580224072537058,-1.0133285916490329
1.9185067792473809,4.51629254024132,-0.01424981565214741,0.6411599608343245,-1.057649658406334
1.9157858449947547,4.396067419953546,-0.014391597533391993,0.62436762114224,-1.1014699288103826
1.9130366291735712,4.279026272825607,-0.01454751637380119,0.6076444538886862,-1.144682031483267
1.910256573171738,4.165156034124912,-0.014716231013917502,0.5909896376975633,-1.1871755312589356
1.9074433743902937,4.054443783844082,-0.01489638773812658,0.5744024705217072,-1.2288365442398603
1.9045949888402787,3.946876723318404,-0.01508661805150659,0.5578823771170037,-1.2695473247667255
1.9017096342066,3.842442150310095,-0.015285535987215574,0.5414289177073128,-1.3091858209465164
1.8987857934728383,3.7411274323184465,-0.015491734894486523,0.5250417979942679,-1.347625195050145
1.8958222192112175,3.6429199778434054,-0.015703783648891363,0.5087208806903692,-1.384733304730487
1.8928179386539556,3.547807205293541,-0.01592022221702236,0.49246619878187703,-1.420372140629475
1.8897722596761284,3.4557765091870323,-0.0161395564969472,0.4762779707603354,-1.4543972155463434
1.8866847778362845,3.3668152232454283,-0.016360252343516176,0.46015661809864983,-1.486656899941254
1.8835553846396593,3.280910579923507,-0.0165807286735909,0.44410278529000247,-1.516991698170233
1.8803842772102966,3.1980496658534427,-0.01679934953022672,0.4281173628159437,-1.545233459521207
1.8771719695831164,3.1182193726068483,-0.017014414966406977,0.4122015134639853,-1.5712045178964946
1.873919305855483,3.041406342092664,-0.017224150587628762,0.3963567024748169,-1.5947167539389646
1.8706274754707113,2.9675969058114617,-0.01742669556786185,0.3805847320641407,-1.615570573638158
1.8672980309439549,2.8967770170768006,-0.01762008892431167,0.36488778093227564,-1.6335537981432364
1.8639329083849705,2.8289321751911842,-0.017802253801839613,0.34926844944262514,-1.6484404608938672
1.8605344512235642,2.764047340429034,-0.017970979476123108,0.3337298112115716,-1.6599895106146014
1.8571054376036868,2.7021068385337443,-0.01812390073311069,0.31827547189674543,-1.667943422727454
1.8536491119834175,2.643094253285412,-0.01825847421709207,0.30290963598042664,-1.6720267280931294
1.8501692215636139,2.5869923055495434,-0.01837195125452756,0.28763718229187946,-1.6719444778306254
1.8466700582725966,2.53378271709089,-0.018461346545654178,0.2724637488518511,-1.6673806779644145
1.8431565071650828,2.4834460573580124,-0.018523401954489958,0.25739582728371296,-1.6579967502828625
1.8396341022620448,2.4359615714572307,-0.0185545443932788,0.2424408664087155,-1.6434301097153632
1.8361090910824238,2.391306987710461,-0.01855083644483758,0.22760738355726667,-1.6232929991398086
1.8325885094272187,2.349458303641832,-0.01850791782047809,0.2129050803230568,-1.5971717977443358
1.8290802684201783,2.310389550137259,-0.018420934885211387,0.1983449565671765,-1.5646271304663484
1.8255932564684354,2.2740725351368845,-0.018284454080501698,0.1839394118578206,-1.525195270307976
1.8221374598174562,2.2404765709562504,-0.01809235277191194,0.16970231635938854,-1.4783915659717322
1.8187241069680067,2.209568193783973,-0.01783767722229336,0.15564902229617447,-1.4237169759117503
1.81536584478821,2.1813108909160697,-0.0175124509860929,0.1417962710501682,-1.3606692855984832
1.8120769583495282,2.1556648619826575,-0.017107406263189063,0.1281619282488991,-1.2887612665908437
1.8088736534481642,2.132586856105295,-0.016611592698537698,0.11476444940755295,-1.207548917900392
1.8057744322835716,2.1120301486269604,-0.016011787981385306,0.10162194510121868,-1.1166739341315495
1.8028006118711901,2.0939447482203235,-0.015291584780523804,0.08875069075811595,-1.015925343951257
1.7999770663499586,2.078277952412961,-0.014429947021915017,0.0761629493193745,-0.9053249555337951
1.797333326402185,2.064975379785132,-0.013398894533595327,0.06386413097356493,-0.7852378040288663
1.7949052560314194,2.0539825591234226,-0.012159740948148368,0.051849770728642566,-0.656498490814867
1.7927376833051563,2.0452469666256086,-0.010656814065148606,0.04010383451149192,-0.5205223392856552
1.7908887021200082,2.0387199248497083,-0.008806145778514837,0.028601868392712112,-0.3793357895082743
1.7894373813781352,2.034356710149982,-0.006470914662253011,0.017326707393870898,-0.23542785772773042
1.788501140045864,2.032110133320831,-0.0033842572563928005,0.006321469755074895,-0.09133021973455846
