x,y,v_x,v_y,omega
2.375,32.48,0.0,3.7435897435897436,-3.4693877551020407
2.373996783305665,31.74150671858013,-0.010032166943349392,3.641343070608937,-3.2038318823740557
2.3711635146070136,31.02296143402549,-0.018300520043166284,3.54410977493747,-2.9690396998663213
2.3668230537602613,30.32339958024576,-0.025104088424358,3.451508762859832,-2.760447077931265
2.3612439268584096,29.641928914150995,-0.030687180594156375,3.363197898087803,-2.574283757610023
2.3546501767189834,28.97772223532121,-0.035250320800104866,3.2788688902100613,-2.4074174557793415
2.347229264060184,28.330011044132902,-0.038958805787889406,3.1982430216729707,-2.25723183465501
2.33913843920887,27.698079987443535,-0.04194944272525336,3.1210675452207117,-2.12153030224027
2.3305099062769328,27.0812619705507,-0.04433588659411634,3.047112623707644,-1.9984596732119975
2.3214550284404716,26.478933836854015,-0.0462128917704956,2.976168713259202,-1.8864492128645227
2.3120677676193235,25.89051253430615,-0.0476597164409871,2.9080443122194346,-1.7841616785220955
2.302427509762205,25.315451701643436,-0.0487428621301955,2.842564014407731,-1.6904537786446505
2.2926013947002284,24.7532386184598,-0.049518288489570045,2.779566817428613,-1.6043440697314733
2.282646244672989,24.203391472098573,-0.050033211782824834,2.7189046461836885,-1.524986761276261
2.272610166349058,23.66545690157436,-0.05032757145648716,2.6604410590584586,-1.4516502393368467
2.262533886120166,23.13900778466637,-0.050435230832430254,2.604050110021427,-1.3836993783506302
2.2524518666501323,22.623641239218628,-0.05038496386790573,2.549615344455974,-1.3205809093413703
2.2423932433587246,22.118976813750805,-0.05020126904617502,2.4970289102222534,-1.2618112657194116
2.232382612153022,21.624654845886496,-0.04990504301085185,2.44619076842085,-1.2069664465766567
2.2224406938557393,21.140334969968944,-0.0495141399619727,2.39700799075466,-1.1556735299439909
2.212584896093622,20.66569475765589,-0.04904383765920031,2.3493941323758873,-1.1076035410479843
2.2028297896475344,20.200428477343348,-0.04850722680167363,2.303268670749513,-1.0624654377829275
2.1931875132345686,19.744245960025275,-0.04791553732798661,2.2585565024312113,-1.0200010208848163
2.1836681182402193,19.296871560702193,-0.04727841261550438,2.2151874907996207,-0.9799806123017281
2.1742798629275066,18.858043205748046,-0.046604140511621775,2.17309605874183,-0.9421993740223056
2.165029464027373,18.427511517763865,-0.04589984848971401,2.132220821099988,-0.9064741627046514
2.1559223122880393,18.00503901041662,-0.04517166890362356,2.092504252372462,-0.8726408340418145
2.1469626574726868,17.59039934660476,-0.044424879249901524,2.0538923857461624,-0.8405519258385046
2.138153767399232,17.18337665402668,-0.043664021484644655,2.016334540034609,-0.8100746609828147
2.1294980648766817,16.783764892870913,-0.04289300374086261,1.9797830715230638,-0.7810892214452301
2.120997245780517,16.391367270909715,-0.04211518722078557,1.9441931480889005,-0.7534872525723959
2.112652381001435,16.005995701772648,-0.04133346057003251,1.909522543281776,-0.727170563618299
2.1044640045787313,15.627470302612288,-0.04055030365700658,1.8757314483218053,-0.7020499959508877
2.0964321899765035,15.255618927758977,-0.03976784236527087,1.8427823002112966,-0.6780444349107644
2.088556616165355,14.89027673530165,-0.0389878957462144,1.8106396243619853,-0.6550799450586691
2.0808366249243524,14.53128578383349,-0.03821201666380852,1.779269890319645,-0.6330890116729787
2.0732712705695264,14.178494656869006,-0.03744152688445208,1.748641379325191,-0.6120098739624017
2.065859363139464,13.831758112677576,-0.036677547416174086,1.7187240625891032,-0.5917859376353449
2.0585995059201028,13.490936757490978,-0.03592102477743892,1.689489489276891,-0.5723652562913304
2.0514901280651463,13.155896740232325,-0.03517275377212602,1.6609106833096432,-0.5537000726324951
2.044529512961894,12.826509467083618,-0.03443339726039197,1.6329620481774334,-0.5357464117844951
2.0377158229016374,12.502651334361264,-0.033703503342175506,1.6056192790461072,-0.5184637201068196
2.031047120536549,12.184203478305534,-0.03298352030871091,1.5788592815111966,-0.5018145437960402
2.0245213875391146,11.871051540512653,-0.03227380966563227,1.5526600964176054,-0.4857642423693838
2.018136540823803,11.56308544784876,-0.0315746574874837,1.5270008302213238,-0.47028073278289423
2.011890446642416,11.26019920578456,-0.03088628432638411,1.501861590420668,-0.455334260507092
2.0057809328231637,10.962290704179473,-0.030208853866141187,1.4772234256301866,-0.4408971943690135
1.9998122047994342,10.669262116997736,-0.02947842637115434,1.4530624461871857,-0.4251651802419549
1.9939877713248868,10.38101911087928,-0.02876590837432042,1.4293676149973646,-0.41014459812304416
1.9883040807798746,10.097470103546552,-0.02807099707580033,1.4061224583299021,-0.3957949216642447
1.982757644375631,9.818526733167914,-0.02739336696663513,1.3833112454564802,-0.38207837032920045
1.9773450402203006,9.544103713963139,-0.026732674586671376,1.3609189465912623,-0.3689596938086194
1.9720629164991896,9.274118699938413,-0.026088562624437466,1.3389311936560186,-0.35640597561735077
1.9669079938922525,9.008492156207755,-0.02546066344493298,1.3173342436505742,-0.34438645396997297
1.9618770673357697,8.747147237399883,-0.024848602119894037,1.2961149444281446,-0.3328723582396064
1.9569670072212535,8.490009672687808,-0.02425199902526805,1.2752607026926064,-0.32183675948781554
1.9521747601125123,8.237007657013496,-0.023670472062145596,1.2547594540505258,-0.31125443371505085
1.9474973490512915,7.988071748111942,-0.023103638550062425,1.234599634965026,-0.301101736623845
1.9429318735127614,7.743134768968293,-0.022551116835238624,1.2147701564714755,-0.29135648881329274
1.938475509064155,7.502131715368478,-0.022012527650824565,1.195260379526665,-0.2819978704352551
1.9341255067729268,7.2649996682284375,-0.021487495261457056,1.176060091873732,-0.2730063244420142
1.9298791924047518,7.031677710409593,-0.020975648420291926,1.1571594863147177,-0.2643634676433048
1.925733965446414,6.802106847748984,-0.020476621163085282,1.138549140291374,-0.256052008869098
1.9216872979840285,6.576229934051568,-0.01999005346077035,1.1202199966827993,-0.24805567360438302
1.917736733463026,6.353991599809717,-0.019515591749256933,1.1021633457357118,-0.24035913452449287
1.9138798853528192,6.135338184431166,-0.019052889352811242,1.0843708080497818,-0.232947947415141
1.910114435736007,5.9202176717715425,-0.018601606815308702,1.066834318546454,-0.22580849201105033
1.906438133839291,5.708579628781376,-0.01816141215185053,1.0495461113552036,-0.21892791733154382
1.9028487945209398,5.500375147090235,-0.0177319810316621,1.0324987055561876,-0.2122940911313203
1.899344296727592,5.2955567873623295,-0.017312996901817004,1.0156848917228576,-0.20589555312038332
1.8959225819313974,5.094078526268813,-0.016904151060129633,0.9990977192123145,-0.1997214716391836
1.892585057533791,4.896062712588179,-0.016471092915933946,0.981060417594025,-0.22693060128655687
1.8893306488786514,4.7016432448651315,-0.01607299363546113,0.9631342596364668,-0.2557757007892178
1.8861524255914393,4.51079819326749,-0.015709239236661378,0.9453162563399476,-0.2861507173004798
1.8830435865857118,4.32350621435948,-0.015379150820611887,0.9276035327401715,-0.31795199899384075
1.8799974724085433,4.13974652871503,-0.015081990951072493,0.9099933237043152,-0.35107806773876343
1.8770075763647251,3.9594988993345055,-0.014816969487110719,0.8924829701009362,-0.38542939673186377
1.8740675545253382,3.7827436107911225,-0.014583248906757558,0.8750699153328984,-0.42090819218040987
1.871171234719045,3.6094614490353436,-0.014379949156174649,0.8577517022248922,-0.45741817814025443
1.8683126245978756,3.4396336817869013,-0.014206152055519445,0.840525970259544,-0.49486438360895213
1.8654859188633677,3.2732420394450905,-0.01406090528956081,0.8233904531585745,-0.533152930966657
1.8626855057336018,3.110268696448429,-0.013943226008097099,0.8063429768080209,-0.5721908248421924
1.8599059727269585,2.950696253014705,-0.013852104058336291,0.7893814575292085,-0.6118857404590882
1.857142111834266,2.7945077171917845,-0.01378650486858758,0.7725039006999816,-0.6521458104859463
1.8543889241474214,2.6416864871484123,-0.013745371999859906,0.7557083997337274,-0.6928794093767238
1.8516416240095115,2.492216333632342,-0.013727629379238653,0.7389931354269895,-0.7339949341387567
1.8488956427489687,2.346081382520641,-0.013732183226189581,0.7223563756900333,-0.7754005804089041
1.8461466320583306,2.203266097383775,-0.01375792368019006,0.7057964756786382,-0.8170041126501895
1.8433904670767838,2.063755261980937,-0.013803726135281127,0.689311878349739,-0.8587126272018404
1.8406232492348318,1.9275339625991244,-0.0138684522842369,0.6729011154683826,-0.900432306823573
1.8378413089192058,1.7945875701423937,-0.013950950872024694,0.6565628090989137,-0.9420681652691467
1.835041208016499,1.6649017218705566,-0.014050058155040944,0.6402956736194433,-0.9835237803033031
1.832219742395074,1.5384623026780488,-0.014164598059211721,0.6240985183056289,-1.0247010134387524
1.8293739443865134,1.4152554257937133,-0.014293382026394784,0.6079702505377278,-1.065499714514352
1.8265010853304178,1.2952674127705457,-0.014435208534559683,0.5919098796939523,-1.10581740906043
1.8235986782496725,1.178484772620795,-0.014588862272893978,0.5759165218035442,-1.145548966200718
1.820664480727561,1.0648941799359477,-0.014753112948220487,0.5599894050449165,-1.1845862446210687
1.8176964980633552,0.9544824518126624,-0.014926713693836857,0.5441278761879276,-1.2228177138916676
1.8146929867893697,0.8472365233843533,-0.015108399046019185,0.5283314080951702,-1.2601280481609585
1.8116524586400808,0.7431434217333006,-0.015296882446868163,0.512599608415368,-1.2963976889457296
1.8085736850729133,0.6421902379294657,-0.01549085322480757,0.49693222962298406,-1.331502373423755
1.8054557024508582,0.5443640969089323,-0.0156889729957424,0.48132918058234275,-1.3653126242957685
1.8022978180094342,0.44965212486646067,-0.01588987141849858,0.46579053984240604,-1.3976931969278754
1.799099616744832,0.35804141379219345,-0.016092141227524007,0.45031657090029276,-1.4285024791233174
1.7958609693767071,0.26951898273134844,-0.016294332453725666,0.43490773970814645,-1.4575918385194269
1.7925820415582843,0.1840717352865866,-0.01649494573050254,0.4195647347394616,-1.4848049122861096
1.7892633045286133,0.10168641281486401,-0.01669242456620589,0.4042884899777604,-1.509976833553761
1.785905547427389,0.02234954269282241,-0.01688514644603677,0.38908021124262393,-1.5329333888775714
1.782509891522257,-0.05395261906395632,-0.017071412605283713,0.37394140632512846,-1.5534901011357456
1.7790778066326132,-0.1272341516430302,-0.017249436291154496,0.358873919465581,-1.5714512326855432
1.775611130073362,-0.19750954066645932,-0.017417329301357816,0.3438799707687124,-1.5866087045462012
1.7721120884879515,-0.2647937578644104,-0.017573086552745674,0.32896220121081116,-1.5987409291104961
1.768583322993595,-0.32910235037970637,-0.017714568390820216,0.31412372394214577,-1.607611556801157
1.76502791812473,-0.39045154103531843,-0.017839480297830515,0.2993681826139496,-1.6129681417629422
1.7614494351360457,-0.4488583410409106,-0.0179453495890104,0.2846998174419977,-1.6145407389649595
1.757851950317539,-0.5043406767477236,-0.018029498596057573,0.2701235396261456,-1.6120404562283759
1.7542400990866684,-0.55691753216297,-0.018089013712649468,0.2556450145263183,-1.6051580015273785
1.7506191267654312,-0.6066091089727053,-0.018120709499721718,0.24127075357103137,-1.59356229113791
1.74699494713674,-0.653437005741992,-0.01812108678718778,0.22700821412182928,-1.5768992218056475
1.7433742101268417,-0.6974244176789313,-0.01808628331179695,0.21286590524759832,-1.5547907659129647
1.7397643803145777,-0.7385963577327246,-0.01801201481084268,0.19885349529030813,-1.526834631183813
1.736173828483317,-0.7769798986417413,-0.01789350350176554,0.18498191379983828,-1.4926048481435052
1.7326119392061015,-0.8126044335469871,-0.01772538927038948,0.171263435252636,-1.4516538269521846
1.7290892386544807,-0.8455019494783329,-0.017501616245819203,0.15771172406080944,-1.4035166846413798
1.7256175487250769,-0.8757073027395705,-0.017215283048218406,0.1443418085515399,-1.3477190157808303
1.72221017665396,-0.9032584770438419,-0.016858437662952593,0.13116993449116474,-1.2837898004388864
1.7188821543243833,-0.9281967930199713,-0.016421785632812384,0.11821322527014705,-1.211281842066616
1.7156505497798888,-0.9505670202148053,-0.015894259812132692,0.1054890466781972,-1.1298029917892043
1.7125348871913115,-0.9704173193979742,-0.015262366073639387,0.09301394515346412,-1.0390623030616037
1.709557734193909,-0.9877989157685647,-0.014509163900384465,0.08080201855245872,-0.9389357097152445
1.706745552745438,-1.002765381208647,-0.01361265058432536,0.06886263584834793,-0.829554679475375
1.7041299708777011,-1.015371409734179,-0.012543168093044605,0.0571976494069476,-0.7114161768411739
1.7017497364456369,-1.025671057356078,-0.011259176227598276,0.04579882681205013,-0.5854992625312951
1.6996538102568337,-1.0337156849678522,-0.009700085660433247,0.03464744930567997,-0.4533489877201542
1.6979065293532982,-1.0395524645481302,-0.00777272337492297,0.023720346497129327,-0.317055016776598
1.6965973784880675,-1.0432257327608312,-0.005318785277383135,0.013012335629883407,-0.17903109291342373
1.6958663617511889,-1.0447887266643647,-0.001991382091402287,0.0026176034054204867,-0.04153629059286998
