x,y,v_x,v_y,omega
2.375,32.48,0.0,2.051282051282051,-7.877551020408164
2.373788432521465,32.05338207111413,-0.011538737890810353,2.011745842869093,-7.504195868501372
2.3702907251856478,31.63493460511832,-0.021772760545544688,1.973468118995719,-7.156496727180045
2.3647662066454838,31.22440124999585,-0.030841701741729163,1.936373358361161,-6.83206158914706
2.3574466520652186,30.82154078398926,-0.03886834187984652,1.9003929845587457,-6.52877363988724
2.348539572978955,30.42612575000864,-0.04596098275123285,1.8654644819233432,-6.2447535764882085
2.3382310496701684,30.037941260997776,-0.05221542971340137,1.8315306515134417,-5.978327961342434
2.326688180600827,29.656783949538752,-0.05771665666128066,1.7985389814296595,-5.728002497473314
2.3140612093176673,29.282461039835553,-0.06254021270214331,1.7664411109817442,-5.492439344855238
2.3004853782020893,28.914789524088004,-0.06675341697002697,1.7351923723282499,-5.270437775603608
2.2860825496789183,28.553595428369423,-0.0704163784887473,1.7047513964201448,-5.0609176040932455
2.2709626285192632,28.19871315562257,-0.07358287065082364,1.6750797725974844,-4.862904935916592
2.255224813262689,27.8499848954162,-0.07630108417369338,1.6461417531774913,-4.675519864429087
2.2389587002424127,27.507260091757473,-0.07861427792417526,1.6179039959532238,-4.497965810849489
2.2222452599957334,27.170394961609926,-0.08056134347277268,1.590335338785349,-4.329520257513698
2.2051577028056717,26.839252057881588,-0.0821772964325744,1.5634066014845105,-4.169526666948307
2.1877622476143297,26.513699871570573,-0.08349370538973026,1.537090411001342,-4.017387414227914
2.1701188064692585,26.19361246852179,-0.08453906742047039,1.511361046606153,-3.8725575883597565
2.152281594929539,25.87886915688849,-0.08533913771971836,1.4861943022823605,-3.7345395415475493
2.1343313634191756,25.56936878211988,-0.08561544809326294,1.4614283145615539,-3.5957047959258914
2.116339789281439,25.265014213719425,-0.08573287702804182,1.4371866225856702,-3.4635118334130843
2.0983385571069846,24.965697505485206,-0.08570742939533317,1.4134486939306874,-3.3375600015393703
2.080356148325124,24.67131490917658,-0.0855536066223868,1.390195080437174,-3.217477575374605
2.062418141388112,24.381766654751615,-0.08528455468248912,1.3674073426577393,-3.10291931642587
2.044547482538888,24.096956745777284,-0.08491219626250103,1.3450679809073174,-2.993564267986408
2.0267647302890794,23.816792768699166,-0.08444734897377115,1.3231603722176146,-2.8891137609564796
2.009088276367946,23.54118571479506,-0.08389983122749688,1.301668712583405,-2.789289607365359
1.9915345455844615,23.270049813757726,-0.08327855718664331,1.2805779639626302,-2.6938324615903566
1.9741181767669675,23.00330237795824,-0.08259162202758377,1.2598738055563021,-2.602500331660815
1.956852186702027,22.74086365653512,-0.08184637859089872,1.2395425889495861,-2.5150672251085604
1.93974811878131,22.48265669853735,-0.08104950636831193,1.219571296743465,-2.431321915628209
1.922816177878517,22.228607224422735,-0.08020707365828607,1.19994750434812,-2.3510668183803056
1.9060653528139158,21.9786435052784,-0.07932459362363259,1.1806593446455487,-2.274116963140622
1.8895035276191074,21.732696249188244,-0.07840707489835153,1.1616954752607187,-2.2002990556979367
1.8731375826866095,21.490698494223984,-0.07745906731591322,1.1430450482083905,-2.1294506189539146
1.8569734867755363,21.25258550758285,-0.07648470326573706,1.1246976817071763,-2.061419206102352
1.8410163807442597,21.018294690436342,-0.0754877351273738,1.106643433973897,-1.9960616790781003
1.8252706537918044,20.787765488091907,-0.07447156918172472,1.0888727788302537,-1.933243546183056
1.809740012910493,20.560939305102817,-0.0734392963545731,1.0713765829705784,-1.872838353430118
1.7944275461818238,20.33775942499171,-0.07239372010894414,1.0541460847542659,-1.8147271247067154
1.7793357804846763,20.11817093428055,-0.0713373817686509,1.0371728743996422,-1.7587978463565634
1.764466734128819,19.902120650544475,-0.07027258352522928,1.0204488754677317,-1.7049449922196773
1.7498219648765203,19.689557054229205,-0.06920140935380382,1.0039663275348067,-1.6530690855631747
1.7354026137701903,19.48043022399205,-0.0681257440398156,0.987717769961911,-1.6030762946850043
1.7212206255848599,19.274869104666863,-0.06694081010618902,0.9700071759922634,-1.5875534987336641
1.7072847993657976,19.07301314065232,-0.06578134436107128,0.9524305765271863,-1.5748229793506106
1.6935897311441073,18.874834615606147,-0.06464787679788264,0.9349839477220964,-1.564733074157594
1.6801299219874362,18.680306639439088,-0.06354078183707991,0.9176634443451327,-1.5571369351886248
1.6668998093691088,18.48940311166209,-0.06246029071842079,0.900465391626272,-1.5518921777285397
1.6538937960331852,18.30209868637761,-0.06140650295704162,0.8833862777496945,-1.5488605439141052
1.6411062765450133,18.118368738783513,-0.06037939693030852,0.8664227469560161,-1.5479075796321324
1.6285316617033412,17.93818933306451,-0.05937883965704703,0.8495715932249566,-1.5489023233232757
1.6161644009776412,17.76153719155205,-0.05840459582580712,0.8328297545127689,-1.5517170053643523
1.603999003122887,17.58838966503836,-0.057456336124234224,0.8161943075223635,-1.5562267567567527
1.5920300551135202,17.418724704134817,-0.056533644917353805,0.799662462987553,-1.5623093258943008
1.580252239528745,17.25252083156822,-0.05563602731860074,0.7832315614562483,-1.569844802221199
1.5686603505124532,17.08975711531143,-0.054762915693702716,0.7668990695608113,-1.5787153456197727
1.5572493084230414,16.930413142446994,-0.05391367563402889,0.7506625767671187,-1.5888049203888894
1.5460141732810335,16.77446899366373,-0.053087611432713025,0.7345197925972847,-1.5999990326873752
1.534950157115757,16.621905218286955,-0.05228397109372782,0.7184685443244405,-1.612184470322621
1.5240526353063004,16.472702809743026,-0.051501950901099325,0.7025067751415253,-1.6252490437629965
1.5133171570065638,16.326843181358143,-0.05074069957258281,0.6866325428097524,-1.6390813272437197
1.5027394547394106,16.184308142389508,-0.0499993220193513,0.6708440187963085,-1.6535703988195392
1.4923154532406708,16.04507987418482,-0.049276882730551516,0.6551394879149792,-1.6686055781940323
1.4820412776300746,15.909140906362527,-0.04857240879893714,0.6395173484878218,-1.684076161124575
1.4719132609830632,15.776474092900976,-0.04788489260117173,0.623976113050773,-1.699871149164246
1.461927951374843,15.647062588019363,-0.04721329414378055,0.608514409631257,-1.7158789734573228
1.4520821184660213,15.520889821726772,-0.0465565430830963,0.5931309836314952,-1.7319872112539703
1.4423727596976854,15.39793947490794,-0.045913540424862315,0.5778247003574006,-1.7480822937528615
1.432797106162903,15.278195453805242,-0.04528315990640023,0.562594548239719,-1.7640492038186952
1.4233526282212856,15.16164186374591,-0.044664249061385775,0.5474396428015403,-1.779771162056305
1.4140370409235912,15.048262981951122,-0.04405562996427302,0.5323592314345247,-1.7951292996563128
1.404848309314279,14.9380432292497,-0.043456099648224195,0.5173526990552233,-1.810002316361972
1.395784653681581,14.830967140503006,-0.042864430186995074,0.5024195747228039,-1.8242661218471086
1.3868445548270545,14.727019333529526,-0.04227936842754182,0.48755953931034723,-1.837793458746673
1.3780267594297733,14.626184476296903,-0.04169963535609029,0.472772434333687,-1.8504535055524145
1.3693302855844074,14.528447252126146,-0.041123925075965156,0.4580582720544819,-1.8621114575876752
1.360754428597527,14.433792322626712,-0.040550903370514764,0.44341724698773877,-1.8726280843225969
1.3522987671326425,14.342204288052397,-0.03997920581886108,0.4288497489581218,-1.881859261405086
1.3439631698019547,14.253667644736105,-0.03940743542578486,0.4143563778637096,-1.8896554759924309
1.3357478023116895,14.168166739226841,-0.03883415971959851,0.39993796031976386,-1.895861304312757
1.327653135278511,14.085685718714672,-0.03825790726305461,0.38559556836756814,-1.9003148609181384
1.319679952847156,14.006208477289565,-0.03767716351175711,0.3713305404429794,-1.9028472198853912
1.3118293622545556,13.929718597538656,-0.03709036594157817,0.3571445048037661,-1.90328180937633
1.3041028045039011,13.856199286945131,-0.03649589835036986,0.34303940561077445,-1.9014337826232117
1.296502066334165,13.785633308512732,-0.03589208421854449,0.32901753184064725,-1.8971093707439926
1.2890292936976822,13.718002905006589,-0.035277178986054404,0.31508154917023184,-1.8901052260713604
1.2816870069920852,13.653289716178698,-0.03464936106724977,0.3012345349049175,-1.8802077692487713
1.2744781183355371,13.59147468834307,-0.03400672137606544,0.28748001591057964,-1.8671925596839738
1.2674059512291114,13.532537975692684,-0.033347251066084466,0.27382200933118145,-1.8508237177090618
1.2604742630222572,13.47645883282464,-0.03266882709443134,0.26026506560255186,-1.830853438866808
1.2536872706937388,13.423215498085337,-0.03196919508193476,0.24681431286700417,-1.8070216573361209
1.2470496805919458,13.372785067598105,-0.031245948744666168,0.23347550129710049,-1.7790559382583067
1.2405667229609565,13.325143360239743,-0.030496504883802702,0.22025504497303222,-1.7466717098120492
1.2342441923360228,13.280264774456633,-0.029718072496517523,0.20716005772325904,-1.7095729881742765
1.228088495259974,13.238122138747993,-0.028907613942041693,0.19419837759711997,-1.6674538056600396
1.2221067073040872,13.198686559016881,-0.02806179516164161,0.18137857222299833,-1.6200006288318
1.2163066421537556,13.161927267960895,-0.027176920555802085,0.16870991402448032,-1.566896154230105
1.2106969366612428,13.127811484444756,-0.02624884603955881,0.15620230993875261,-1.507824999276769
1.2052871574539583,13.096304294594628,-0.025272860696484403,0.14386616482438289,-1.4424819669208062
1.2000879371806152,13.067368571393864,-0.024243522859164094,0.13171215137337614,-1.3705837493246464
1.1951111521621525,13.04096495593842,-0.023154429697624764,0.11975085296416384,-1.2918851255475798
1.1903701586359252,13.017051930980962,-0.021997889599777706,0.10799224186877134,-1.2062008421898482
1.185880112707393,12.995586024922254,-0.020764452576719182,0.0964449586903544,-1.1134343184105377
1.1816584106268073,12.976522189379352,-0.019442233905050312,0.0851153798134694,-1.013613847743754
1.1777253026662136,12.959814390380537,-0.018015937148224328,0.07400651541335579,-0.9069356745817796
1.1741047584014899,12.945416431952772,-0.01646543680152459,0.06311689818440869,-0.7938106334626189
1.1708256997012385,12.933282974614436,-0.014763693677059545,0.052439838371174226,-0.6749064055150635
1.1679237874162294,12.923370594975992,-0.012873566180170389,0.041963777233056776,-0.5511709450614827
1.1654441038972971,12.915638517685252,-0.010742467333470684,0.03167505410733576,-0.423816066978181
1.1634455115757711,12.910048245037718,-0.008291745252491862,0.02156563777393085,-0.29423785600325497
1.1620090233156488,12.906560287189357,-0.005389095320102007,0.01165300840092988,-0.16385768194734468
1.1612606923699456,12.905121329274674,-0.0017378660675477211,0.002051352691277363,-0.03390675999604789
