x,y,v_x,v_y,omega
2.375,32.48,0.0,2.6666666666666665,-2.7346938775510203
2.3743981967453025,31.926146641818697,-0.005731459568545695,2.608127220774282,-2.573972577033888
2.372675752282325,31.38436018703738,-0.010672773412192662,2.5517437771430314,-2.4272590863758663
2.3699877189104352,30.854201226069463,-0.014927544415330507,2.4973891844561718,-2.2929608699207864
2.366468936672915,30.335255985838586,-0.018584667370577408,2.4449464367902705,-2.1696999056933666
2.3622368812401033,29.82713430957191,-0.021720622465721685,2.3943076228923634,-2.0562798125557897
2.357394071301884,29.329467842796653,-0.024401376945893123,2.3453730130624852,-1.9516585891335072
2.352030110086933,28.841908398976983,-0.026683967958402763,2.2980502614105536,-1.8549259110310703
2.3462234218464504,28.364126482446633,-0.02861782480809712,2.2522537055451486,-1.7652841484739357
2.340042733123687,27.895809949710184,-0.03024587731345685,2.207903749087703,-1.6820324343070274
2.3335483397774333,27.436662792978368,-0.031605487888960566,2.164926315024835,-1.6045532436946819
2.326793193578487,26.986404032102193,-0.03272923781528973,2.123252359986366,-1.5323010503989898
2.3198238363989234,26.544766702978244,-0.033645592466267665,2.082817441194092,-1.4647927065327915
2.3126812052899006,26.11149693209093,-0.03437946571490354,2.0435613291612733,-1.4015992579981704
2.3054013278801126,25.686353088196856,-0.034952700092602894,2.0054276603061036,-1.342338960088254
2.2980159243552056,25.269105003289283,-0.035384476335082043,1.9683636245279132,-1.286671299749352
2.2905529296653198,24.85953325594387,-0.03569166356859135,1.9323196835236642,-1.2342918649290986
2.2830369474477106,24.45742851097016,-0.03588911945625795,1.897249316225957,-1.1849279289460237
2.2754896453598463,24.062590910000512,-0.035989948047211166,1.8631087882468653,-1.1383346402094812
2.2679301000279555,23.674829508258068,-0.03600572178032192,1.829856942633566,-1.0942917259164784
2.2603750985724176,23.293961753273855,-0.0359466730343263,1.797455009597019,-1.0526006333567957
2.2528394026308245,22.919813001782707,-0.03582185974274995,1.76586643317584,-1.0130820448049773
2.2453359799264545,22.552216071428624,-0.03563930887029831,1.7350567130535102,-0.9755737121717554
2.237876207695413,22.19101082426159,-0.03540614094914465,1.7049932599658528,-0.9399285660305887
2.230470051666243,21.836043779316213,-0.03512867837628422,1.675645263323462,-0.906013060649459
2.2231262237620744,21.48716775183452,-0.03481253975865337,1.6469835698355089,-0.8737057225028617
2.21585232125155,21.144241516935367,-0.03446272224633976,1.618980572061208,-0.8428958746230342
2.2086549496977637,20.8071294957456,-0.03408367350400728,1.5916101059365573,-0.813482513242044
2.201539831733516,20.475701462197158,-0.033679354726918104,1.5648473564295793,-0.7853733166148743
2.1945119034174034,20.149832268862255,-0.033253295902728346,1.5386687705694935,-0.7584837688100792
2.1875753996911746,19.82940159034898,-0.032808644347071064,1.5130519771759752,-0.7327363837005377
2.180733930258311,19.51429368291352,-0.03234820739449002,1.4879757126855309,-0.7080600164573843
2.174000011856178,19.204398213213565,-0.03178434881629406,1.4634097130283605,-0.681874512132929
2.167384658425979,18.89960892718147,-0.031219017185606737,1.4393453920392192,-0.6569285785528385
2.160888025839136,18.599822401814595,-0.030653674117655388,1.4157643733595777,-0.6331485286292268
2.154509982704402,18.304938982275395,-0.030089593832195675,1.392649146061385,-0.6104658851488389
2.1482501474927345,18.01486260551535,-0.029527884374162323,1.3699830135580942,-0.588816954290603
2.142107921461665,17.729500634250783,-0.0289695063979269,1.347750046104453,-0.5681424386857071
2.136082517859987,17.448763700567632,-0.028415289808529382,1.3259350365922449,-0.5483870859335311
2.130172987835929,17.172565558490923,-0.027865948515833117,1.30452345937637,-0.5294993689516525
2.1243782434216203,16.900822944907954,-0.02732209352520023,1.283501431890011,-0.5114311949454067
2.118697077922646,16.633455448282405,-0.026784244560270353,1.2628556788294913,-0.49413764013983
2.1131281840029588,16.37038538464086,-0.026252840389132545,1.2425734987090558,-0.4775767077308698
2.107670169721671,16.11153768035304,-0.025728248004085127,1.222642732603475,-0.4617091067891706
2.1023215727486244,15.856839761263888,-0.02521077078683476,1.20305173491228,-0.44649805009342336
2.09708087295963,15.60622144776875,-0.024700655775014287,1.1837893459937852,-0.43190906908538007
2.0919465035893965,15.35961485545375,-0.024198100131974237,1.1648448665300226,-0.4179098443288162
2.086916861100026,15.116954300951075,-0.023703256909647606,1.1462080334954343,-0.4044700500230913
2.0819903139052283,14.878176212684714,-0.02321624018366374,1.127868997612777,-0.3915612112712154
2.0771652100747318,14.643219046205495,-0.0227371296305909,1.1098183021893198,-0.37915657293483035
2.07243988412957,14.412023203835926,-0.022265974609042904,1.0920468632351485,-0.3672309790262821
2.0678126630267,14.184530958365038,-0.021802797799242192,1.0745459507733146,-0.3557607616927792
2.063281871420597,13.960686380551667,-0.021347598449359958,1.05730717125879,-0.34472363894103064
2.0588458362799127,13.740435270211371,-0.020900355271441073,1.0403224510297562,-0.3340986203340899
2.0545028909288,13.52372509067757,-0.02046102902487074,1.023584020720739,-0.3238659199665659
2.0502513785749765,13.310504906441771,-0.020029564821067113,1.0070844005725685,-0.3140068760909312
2.0460896553799364,13.100725323790844,-0.019605894179316935,0.9908163865791288,-0.30450387682725677
2.0420193569990097,12.894477547945346,-0.019158852305695633,0.9734481452827682,-0.32172618099689465
2.0380399775182894,12.69186507431419,-0.01873999989164353,0.9561944607282234,-0.34084967461805876
2.034145603499418,12.492864180511113,-0.01834927647855641,0.9390521469201284,-0.36176423113360173
2.0303303445007463,12.297451800227925,-0.017986523508797585,0.9220181414911766,-0.38436267128313434
2.0265883527805135,12.105605497809094,-0.017651492874369585,0.9050895005929256,-0.4085405283918078
2.0229138412763956,11.917303443857161,-0.017343854783897182,0.8882633941873779,-0.43419582080084484
2.0193010999994545,11.732524391786598,-0.017063204996495183,0.8715371017227462,-0.46122883054399516
2.015744510970783,11.551247655246897,-0.016809071467038663,0.85490800817916,-0.48954188739565097
2.0122385618201704,11.373453086338486,-0.01658092044356085,0.8383736004723681,-0.5190391574319577
2.008777858157932,11.19912105454728,-0.016378162053945655,0.8219314642057751,-0.5496264352559114
2.0053571348236163,11.028232426325513,-0.016200155415729296,0.8055792807634357,-0.5812109390410927
2.001971266108501,10.860768545247762,-0.01604621329965262,0.789314824738944,-0.613701107546236
1.998615275042706,10.696711212671932,-0.015915606374586465,0.7731359616975338,-0.6470063982440878
1.9952843418322255,10.536042668835218,-0.015807567058562417,0.7570406462711607,-0.6810370856927285
1.9919738115263015,10.378745574314909,-0.015721292997855903,0.7410269205889225,-0.7157040592553929
1.9886792009912235,10.22480299178304,-0.0156559501933637,0.7250929130479078,-0.7509186192454385
1.985396205262879,10.074198367982596,-0.015610675790869165,0.7092368374324959,-0.7865922705359987
1.9821207033471748,9.926915515850887,-0.015584580549170961,0.6934569923932989,-0.8226365126284743
1.978848763534781,9.782938596713048,-0.015576750997439019,0.677751761300402,-0.8589626251197054
1.9755766482945443,9.642252102465122,-0.015586251290528262,0.6621196124893631,-0.8954814474437089
1.9723008188083675,9.50484083766186,-0.015612124768297634,0.6465590999226565,-0.9321031516894209
1.9690179392093632,9.370689901419116,-0.01565339522221911,0.631068864293956,-0.9687370072100462
1.9657248805847132,9.239784669034417,-0.015709067869685782,0.6156476346079367,-1.005291135641364
1.9624187248048888,9.11211077322179,-0.01577813003340426,0.600294230274233,-1.041672254834595
1.9590967682417766,8.987654084848096,-0.01585955152004559,0.585007563760941,-1.077785410083035
1.9557565254398386,8.866400693047822,-0.015952284688887233,0.569786643860718,-1.1135336908794495
1.9523957328067723,8.748336884581164,-0.016055264197458924,0.5546305796312764,-1.1488179312819924
1.949012352393288,8.633449122286265,-0.01616740640715355,0.5395385850820527,-1.1835363917891493
1.9456045758356681,8.521724022460173,-0.016287608427320653,0.5245099846902688,-1.2175844204279895
1.9421708285397965,8.41314833098421,-0.016414746771457052,0.5095442198427061,-1.2508540905443901
1.9387097741914583,8.307708897987698,-0.016547675593669365,0.4946408563145483,-1.2832338125489715
1.9352203196850333,8.205392650818712,-0.016685224467519567,0.4797995929138934,-1.3146079166193794
1.9317016205713733,8.10618656506152,-0.01682619566257648,0.4650202714403138,-1.3448562030908253
1.928153087135834,8.010077633306796,-0.016969360866367328,0.45030288812847574,-1.3738534569872811
1.9245743912293296,7.917052831342069,-0.017113457290818597,0.4356476067736806,-1.4014689228634878
1.9209654739890776,7.827099081385445,-0.0172571830925342,0.4210547737655881,-1.4275657358558662
1.9173265546017166,7.740203211934649,-0.0173991920251893,0.406524935289624,-1.4520003045983274
1.913658140279955,7.656351913744988,-0.017538087229683974,0.3920588569928565,-1.474621641476794
1.9099610376452514,7.575531691383233,-0.017672414053207,0.3776575464524411,-1.4952706356183905
1.906236365733644,7.497728809728603,-0.017800651771624067,0.3633222788297439,-1.5137792641031658
1.902485570870261,7.422929234706672,-0.017921204070119073,0.34905462614102983,-1.5299697372435703
1.89871044369092,7.35111856744631,-0.018032388114082136,0.33485649062432105,-1.543653574539094
1.8949131386273808,7.282281970944279,-0.018132422014862364,0.3207301427283573,-1.5546306092830937
1.891096196217338,7.216404088207572,-0.018219410461735863,0.30667826428791856,-1.5626879220700483
1.887262568652595,7.153468950722896,-0.018291328250102802,0.2927039974708848,-1.567598707051372
1.8834156490411005,7.093459875980937,-0.018346001383177955,0.2788110000715865,-1.5691210803369504
1.8795593049335868,7.036359352669223,-0.018381085355047684,0.26500350765903025,-1.566996848339954
1.875697916757801,6.982148912057234,-0.018394040128626776,0.2512864029313413,-1.5609502664274286
1.8718364219194075,6.930808984055478,-0.018382101189405694,0.2376652923234649,-1.5506868368813085
1.8679803654788798,6.88231873647678,-0.018342245863239636,0.22414658937841894,-1.5358922226791334
1.8641359585144213,6.836655896225235,-0.018271153798270424,0.21073760349345252,-1.5162313940205578
1.8603101455583761,6.79379655158283,-0.018165160068826697,0.19744663119613165,-1.491348183718956
1.856510682891243,6.75371493560306,-0.018020198665773295,0.18428304480167917,-1.4608655139715445
1.8527462300629889,6.716383192077316,-0.017831733031885618,0.17125736972922354,-1.424386682544425
1.8490264579007212,6.681771127942845,-0.017594668513521136,0.158381336313367,-1.3814982775188707
1.8453621776450415,6.6498459598271396,-0.017303238683427265,0.14566788383622112,-1.3317755481087055
1.8417654980496467,6.620572068335807,-0.016950852701284526,0.13313108274790467,-1.2747914206678663
1.8382500208013761,6.5939107825530705,-0.016529882996531044,0.1207859247067399,-1.2101308387202672
1.834831090328868,6.569820230019506,-0.016031359598783594,0.10864790894626512,-1.1374127304230053
1.8315261233648656,6.548255304946501,-0.015444516248857445,0.09673232984424347,-1.0563226117647206
1.8283550587544808,6.529167829224491,-0.01475609908814188,0.08505315322252978,-0.9666594052965363
1.8253409925164552,6.512507003087617,-0.013949293654959023,0.07362138141438537,-0.8683999223301073
1.8225111027468168,6.498220253272578,-0.01300203748445447,0.062442902538349,-0.7617823624589471
1.819898033462732,6.486254557944207,-0.011884336649686779,0.051516100588980776,-0.6474038135836467
1.8175420175134764,6.476558202889585,-0.010553910486079697,0.040830138026459156,-0.5263129387029979
1.8154942417053022,6.46908260323481,-0.008948716258438754,0.03036604916186038,-0.4000563279136411
1.8138225473471978,6.463783129384904,-0.006972182390174716,0.02010513036105434,-0.2706121036923066
1.8126227531469137,6.460616195056918,-0.0044544290411016145,0.010056148953097895,-0.14013800699521675
1.8120521366331355,6.45952195953442,-0.0009800139472626694,0.00036514173736534004,-0.01053210995936149
