x,y,v_x,v_y,omega
2.375,32.48,0.0,3.1794871794871797,-2.1224489795918373
2.37453632254382,31.88288092643306,-0.004880815328210092,3.1059767527963573,-1.989044801475918
2.373213503505831,31.29945321242247,-0.009043595597988079,3.0353676052098377,-1.8681624304064621
2.3711583778541057,30.729182713020762,-0.012589305999122287,2.9674797569134235,-1.7582771308191745
2.368480055618025,30.17156806944832,-0.015603559643832412,2.9021480701649414,-1.6580832782855006
2.365272595957124,29.626138035979015,-0.01815917362880679,2.839220703196159,-1.5664586749261296
2.361617239671162,29.092449081810543,-0.020318260960272956,2.7785577617351116,-1.4824353091333187
2.3575842796607853,28.570083233265684,-0.02213394967526709,2.7200301176844275,-1.4051752869903755
2.353234633334273,28.05864612692965,-0.023651801130128325,2.6635183700633474,-1.3339509349328251
2.3486211687026493,27.55776524864131,-0.0249109844659115,2.6089119277086232,-1.2681282827707572
2.343789826178404,27.067088336820774,-0.025945252631405142,2.5561081967180708,-1.2071532985748685
2.3387805703341353,26.586281931582693,-0.026783756255635196,2.505011858419623,-1.1505403734792221
2.3336281996603194,26.115030053571047,-0.02745172452137336,2.455534225913505,-1.0978626536210243
2.328363037358154,25.653032998546486,-0.02797103655405117,2.4075926690818825,-1.0487438945516974
2.32301152216042,25.200006235533387,-0.028360702369466147,2.3611100994770444,-1.0028515752881701
2.3175967148934418,24.75567939784652,-0.028637268861881175,2.316014507753109,-0.9598910583518323
2.3121387338224144,24.319795357611792,-0.02881516346472551,2.2722385473493105,-0.9196006214312343
2.3066551296396565,23.892109375508085,-0.028906985827459396,2.2297191590055,-0.8817472178271575
2.3011612091653983,23.472388318417256,-0.028923756006839475,2.1883972314242777,-0.8461228482343944
2.2956703153578903,23.06040993850059,-0.028875126177454365,2.1482172940142705,-0.812541446955167
2.2901940700139427,22.655962207942572,-0.02876956165357548,2.109127238175428,-0.7808362023158811
2.2847425845343805,22.258842704232496,-0.028614496026024106,2.071078064035898,-0.7508572446481845
2.2793246432929872,21.868858041405353,-0.028416464409695957,2.0340236499340216,-0.7224696463076822
2.2739478634512764,21.485823343146087,-0.02818121813462876,1.997920542268777,-0.6955516873215208
2.2686188344800025,21.109561754086062,-0.027913823668254626,1.9627277636262301,-0.6699933477619159
2.263343240161393,20.739903985994715,-0.027618748106584486,1.9284066373353044,-0.6456949941411777
2.258125965437287,20.37668789590003,-0.027299933199790415,1.894920626819285,-0.6225662322583133
2.2529711901242764,20.01975809346419,-0.026960859568740884,1.862235188294838,-0.6005249031931222
2.2478824712266032,19.668965575200644,-0.02660460251202921,1.8303176355319373,-0.579496202698038
2.24286281533204,19.324167383349817,-0.026233880588642452,1.799137015529415,-0.5594119072077334
2.2379147423678165,18.985226287436475,-0.025851097982127834,1.7686639940846811,-0.5402096921745828
2.2330403418168423,18.652010486715664,-0.025458381501812094,1.7388707503449397,-0.5218325305280697
2.2282413223438886,18.32439333187821,-0.02505761295033008,1.7097308795230004,-0.5042281608163154
2.2235190556529747,18.002253064534223,-0.02465045748034417,1.6812193030452542,-0.4873486160738623
2.2188746152873553,17.68547257312489,-0.024238388473542313,1.6533121854740669,-0.47114980571738013
2.21430881098946,17.37393916403162,-0.023822709399039396,1.6259868576129786,-0.4555911438377086
2.20982221915738,17.067544346758517,-0.02340457304390862,1.5992217452617805,-0.4406352181636161
2.205415209865092,16.76618363216028,-0.022984998453862718,1.5729963031407037,-0.42624749474549284
2.2010879708537985,16.469756342774723,-0.022564885875538093,1.547290953549393,-0.41239605406717844
2.196840528850171,16.17816543439759,-0.022145029952119658,1.5220870293677653,-0.3990513548589215
2.1926727685226597,15.891317328108585,-0.021726131390107713,1.4973667210428472,-0.38618602236880734
2.188587890345975,15.609122092733521,-0.02127258625920683,1.4731094407999379,-0.37272145998484185
2.1845885315681235,15.33149293474861,-0.0208259271918585,1.4493027485149352,-0.3598498283796159
2.1806733632723208,15.058345718163746,-0.020386370658698874,1.4259311102730847,-0.34753818350835636
2.176841020105599,14.789599193785158,-0.019954083727845115,1.4029796726594455,-0.3357557573830877
2.173090109083322,14.52517487348091,-0.019529190190858525,1.3804342252799802,-0.32447379147678734
2.1694192172973277,14.264996911334922,-0.019111775977501758,1.3582811657304352,-0.3136653845815585
2.165826918654833,14.008991991241892,-0.018701893943494766,1.3365074668277768,-0.3033053537222453
2.1623117797602216,13.757089220529444,-0.01829956810504748,1.3151006459348435,-0.29337010687592324
2.1588723650386785,13.509220029224426,-0.01790479738488148,1.29404873622324,-0.2838375263794076
2.1555072411890914,13.265318074608633,-0.017517558926560477,1.2733402597325003,-0.27468686202349507
2.1522149810434965,13.025319150734987,-0.0171378110270701,1.2529642020953409,-0.26589863293597626
2.1489941669014243,12.789161102599024,-0.01676549573158408,1.232909988809512,-0.257454537447157
2.1458433933996583,12.556783744682207,-0.016400541129108766,1.2131674629464724,-0.2493373702131116
2.1427612699709977,12.328128783603677,-0.016042863383110076,1.193726864195939,-0.24153094594440092
2.1397464229395173,12.103139744635488,-0.015692368527209843,1.1745788091534086,-0.234020029152585
2.1367974972944435,11.881761901853235,-0.015348954052517037,1.155714272765059,-0.2267902693844777
2.1339131581799977,11.663942211709696,-0.015012510310069362,1.1371245708511284,-0.21982814146555135
2.131092092134372,11.449629249833517,-0.014682921749146644,1.1188013436349566,-0.21312089031990528
2.128333008107269,11.238773150868205,-0.014360068009830989,1.1007365402104485,-0.20665647997539732
2.1256346382821567,11.031325551179062,-0.014043824886088503,1.0829224038858098,-0.2004235463994423
2.122995738726468,10.827239534267033,-0.01373406517379734,1.0653514583460704,-0.19441135384409075
2.120415089890388,10.626469578738945,-0.01343065941651563,1.0480164945811812,-0.1886097544087367
2.1178914969725864,10.428971508693348,-0.013133476560343405,1.0309105585303864,-0.18300915055553496
2.1154237901691975,10.23470244639023,-0.012842384527961288,1.0140269393971708,-0.17760046033666918
2.113010824820565,10.043620767081222,-0.012557250720804892,0.9973591585923798,-0.17237508511428462
2.110653731670909,9.855881375225735,-0.01225425611767857,0.9788449662022048,-0.20796190136336784
2.108350841666946,9.671649598245306,-0.011986691292455125,0.9604368967496705,-0.24489660545684605
2.1060955065362634,9.490905533002074,-0.011753678504202622,0.942132211073806,-0.28307825062403696
2.1038812489877055,9.313629786972818,-0.011554295691144731,0.9239282734446744,-0.3224076482544532
2.101701770680811,9.139803458898083,-0.011387581223536397,0.9058225483946473,-0.3627871516898538
2.0995509593339228,8.969408120000548,-0.011252538217391651,0.887812597895199,-0.4041204422897132
2.0974228950517557,8.802425795707343,-0.011148138436999588,0.8698960788753792,-0.4463123168668571
2.0953118559481796,8.638838947811525,-0.011073325811168325,0.8520707410806142,-0.48926847557464215
2.09321232313552,8.478630457007924,-0.01102701958524779,0.8343344252730934,-0.5328953093043297
2.091118985147745,8.321783605738094,-0.011008117128174698,0.8166850617777568,-0.5770996856207599
2.0890267418615203,8.168282061278028,-0.011015496411031186,0.799120669380839,-0.6217887322255501
2.0869307079762383,8.018109859000692,-0.01104801817088534,0.7816393545911061,-0.6668696168891691
2.084826216111763,7.871251385743186,-0.011104527770959681,0.7642393112773839,-0.7122493227356286
2.0827088195808066,7.727691363205356,-0.011183856765423345,0.7469188206997843,-0.7578344176953218
2.080574294891534,7.5874148313030325,-0.011284824174294255,0.7296762519562567,-0.8035308168617296
2.078418644035227,7.4504071313944635,-0.01140623747103563,0.7125100628707958,-0.8492435363951719
2.076238096613651,7.316653889293018,-0.011546893282400683,0.6954188013549265,-0.8948764375102478
2.074029111861119,7.1861409979726965,-0.011705577796880699,0.6784011072800519,-0.9403319589616482
2.0717883806173187,7.058854599865114,-0.011881066874701196,0.6614557149050186,-0.9855108363040921
2.069512827308601,6.934781068637594,-0.012072125848640224,0.6445814559109679,-1.0303118060445127
2.0671996119978897,6.813906990331137,-0.012277509000957811,0.6277772631043531,-1.074631292626496
2.064846132566549,6.696219143724608,-0.012495958697365594,0.6110421748591145,-1.1183630759864274
2.062450027095654,6.581704479776832,-0.012726204154162242,0.5943753403806238,-1.1613979371959184
2.0600091765191215,6.470350099981371,-0.012966959809336107,0.5777760258873995,-1.203623279453997
2.0575217076272967,6.362143233448972,-0.01321692326250381,0.5612436218220433,-1.2449227214136258
2.0549859965068773,6.25707121250991,-0.013474772741912172,0.5447776512206953,-1.285175659519209
2.052400672511715,6.155121446601804,-0.01373916404926678,0.5283777793909376,-1.324256795694486
2.0497646228691853,6.056281394177834,-0.014008726924732455,0.5120438250719208,-1.3620356263545794
2.0470769980386674,5.9605385323345885,-0.01428206076492772,0.49577577327803823,-1.3983758883249924
2.044337217952486,5.867880323817548,-0.014557729615931712,0.47957379005924056,-1.4331349568402971
2.041544979285624,5.778294181014395,-0.01483425635103247,0.4634382394476369,-1.4661631903771326
2.038700263919028,5.6917674264911895,-0.015110115928927042,0.44736970290190226,-1.4973032166681184
2.0358033487826357,5.608287249562682,-0.015383727612044398,0.4313690016087119,-1.5263891538741152
2.0328548172888983,5.527840658314698,-0.01565344600624316,0.4154372220542957,-1.5532457606061434
2.0298555725959258,5.450414426412305,-0.015917550761887854,0.3995757453393054,-1.5776875083522106
2.02680685297214,5.375995033931346,-0.0161742347516465,0.38378628077604426,-1.5995175699786117
2.0237102495721415,5.304568601341774,-0.01642159051149896,0.3680709043773286,-1.6185267184891234
2.020567726977304,5.236120815648725,-0.016657594697316477,0.3524321029179431,-1.6344921313597056
2.0173816469055597,5.1706368475613615,-0.016880090268412386,0.3368728243174604,-1.6471760978468553
2.0141547955544215,5.108101258412155,-0.017086766059358473,0.3213965351478671,-1.6563246301754826
2.0108904151116183,5.048497895394036,-0.017275133338571,0.30600728609551275,-1.6616659851564075
2.0075922400516957,4.991809773527937,-0.017442498871140456,0.29070978617921645,-1.6629091116113606
2.004264538938892,4.938018942632475,-0.017585933895215095,0.2755094864045805,-1.659742052542102
2.0009121625830564,4.887106337464832,-0.017702238271472513,0.2604126732548,-1.6518303515592392
1.9975405995565216,4.839051609177002,-0.017787898849947484,0.2454265718802669,-1.6388155440746868
1.9941560402918734,4.793832936348153,-0.01783904077792718,0.23055945789707422,-1.620313860174991
1.9907654512698827,4.751426814213662,-0.0178513699798694,0.21582077509757958,-1.5959153353362885
1.987376661216895,4.711807821473361,-0.01782010426210621,0.201221253747685,-1.5651836280897231
1.9839984618343067,4.674948365472556,-0.017739889238823144,0.18677301994498127,-1.5276569961948152
1.9806407265014176,4.640818408984082,-0.017604693212641954,0.17248967993370315,-1.4828511073197068
1.9773145518336488,4.6093851858377555,-0.01740767171124041,0.15838635318552546,-1.4302646875350127
1.9740324292919327,4.580612919051113,-0.01714098662261413,0.14447961298965473,-1.36938948058035
1.97080845782245,4.554462565011434,-0.016795555161413428,0.13078727163854054,-1.2997266459404482
1.9676586147682114,4.530891621988392,-0.016360687514783392,0.11732791807769291,-1.2208125914286003
1.9646011127290495,4.50985406207262,-0.015823544476394173,0.10412008103571072,-1.1322582721939223
1.9616568874594098,4.491300472623902,-0.015168300467179853,0.09118086052972729,-1.0338069427296284
1.958850290863956,4.475178522633907,-0.014374821590229524,0.0785238762070379,-0.9254154740181784
1.9562101111755898,4.461433887187674,-0.013416543550466238,0.06615649691121556,-0.8073618675706784
1.9537711226587304,4.450011733919705,-0.012257019784895006,0.05407669538317218,-0.6803730337287729
1.9515765087217214,4.440858723947901,-0.010844179552043517,0.04227077800425785,-0.5457472004103807
1.949681795555573,4.433925069464511,-0.009100169565307473,0.030715058663023,-0.4054116698198804
1.9481617515995766,4.429165260678722,-0.006900293129390247,0.019388191713708057,-0.2618193720271039
1.9471250491602927,4.426533627108562,-0.004012364126231031,0.008313214287994058,-0.11758026299414925
