x,y,v_x,v_y,omega
2.375,32.48,0.0,2.9743589743589745,-5.673469387755102
2.3737487663986063,31.891992009303898,-0.012512336013937954,2.90572093260201,-5.321026411626923
2.370174796779192,31.317436238839296,-0.02322736018020463,2.8398367720440127,-5.001256763476084
2.3646128327268925,30.75580013123909,-0.03239228034279204,2.776524303958019,-4.710213395223844
2.357351880323434,30.206585842262125,-0.04021724369178776,2.7156185858116397,-4.444516336190801
2.34864200538784,29.66932701538134,-0.04688150566415574,2.6569696829962064,-4.201259268658205
2.338700009277139,29.143585966345007,-0.05253845544285413,2.6004408073671432,-3.977933445194995
2.3277141903169536,28.62895121006543,-0.057319734158999505,2.5459067554286072,-3.7723653576924963
2.3158483541373354,28.125035275804947,-0.06133862763718423,2.4932525871762414,-3.5826653908917203
2.3032452038646154,27.63147276708224,-0.06469287509001409,2.4423725000508347,-3.407185308628169
2.2900292158872406,27.147918630828162,-0.06746700468373529,2.393168862489945,-3.2444828861259816
2.2763090870520473,26.67404660666624,-0.0697342836681966,2.345551379129257,-3.0932923565133383
2.262179823395939,26.209547832207164,-0.07155835289288656,2.2994363654615046,-2.952499612805605
2.247724527940643,25.754129584243024,-0.07299460166007167,2.254746114179911,-2.821121318434487
2.2330159349731766,25.307514138939514,-0.0740913280145916,2.211408338855195,-2.6982872449361004
2.2181177300698396,24.869437736727257,-0.07489072101878236,2.169355683267381,-2.5832252856467743
2.203085688490163,24.439649639718805,-0.07542969477798349,2.1285252868171063,-2.4752486973652026
2.187968659155473,24.01791127122611,-0.07574059856891559,2.0888583981098225,-2.3737452040509637
2.172809416990665,23.603995428401127,-0.07585182307916405,2.050300030140037,-2.278167662375429
2.1576454027565486,23.197685560229466,-0.07578831926199864,2.012798651576536,-2.1880260418518334
2.142509366483259,22.798775104119812,-0.07557204347089823,1.9763059095200162,-2.1028805150561634
2.1274299281135316,22.40706687518631,-0.07522234022637592,1.9407763798150146,-2.022335488202997
2.1124320668830894,22.022372503046654,-0.07475627207804507,1.906167341581532,-1.9460344306882256
2.097537549227856,21.6445119115771,-0.07418890447428775,1.8724385731140023,-1.873655385426897
2.0827653035529354,21.273312837596087,-0.07353355227491927,1.8395521666961157,-1.8049070609004603
2.068131748976743,20.908610384904968,-0.07280199348700418,1.8074723602150895,-1.7395254215750626
2.053651084135128,20.550246610509397,-0.07200465492914529,1.7761653837405909,-1.6772707063900674
2.039335541262007,20.198070140188207,-0.07115077380206516,1.7455993194713448,-1.6179248158455046
2.025195610028146,19.851935810875638,-0.07024853853654826,1.7157439736543267,-1.5612890172410112
2.0112402349962553,19.511704337584852,-0.0693052117823562,1.6865707592535248,-1.5071819251607672
1.997476990020401,19.17724200283024,-0.068327237976187,1.65805258829261,-1.4554377206206521
1.9839122324658838,18.848420366708723,-0.06732033756898585,1.630163772922533,-1.4059045776075352
1.9705512397398457,18.52511599597903,-0.06628958969139631,1.6028799343744031,-1.3584432702190365
1.9573983302925635,18.20721021063632,-0.06523950478142504,1.5761779190527165,-1.312925937396345
1.9444569709661486,17.894588846620415,-0.06417408848272468,1.5500357211063125,-1.269234985448369
1.9317298723239866,17.58714203342116,-0.06309689793889296,1.5244324108862428,-1.2272621112876636
1.919219073384741,17.28476398545628,-0.06201109145356452,1.4993480687625276,-1.186907431615594
1.9069260170040376,16.987352806197343,-0.0609194723534674,1.4747637238268732,-1.148078705270831
1.894864029256012,16.694813362627563,-0.0597004051267896,1.4506307118708879,-1.1070811944649703
1.8830444842047607,16.407053868399213,-0.05849504538572327,1.4269642304126249,-1.0679427934442913
1.8714645256573852,16.12398267510875,-0.05730454008803293,1.4037477024920333,-1.0305572784854842
1.860121087137009,15.845511374242253,-0.05612984511572885,1.3809653061729414,-0.9948256458195396
1.84901092784209,15.571554650509878,-0.0549717478334586,1.3586019311508282,-0.9606555428340696
1.8381306643520814,15.302030143560732,-0.05383088706663038,1.3366431383406405,-0.9279607500723197
1.8274767985650726,15.03685831750612,-0.05270777080345771,1.315075122205467,-0.8966607089675261
1.8170457422959823,14.775962337724685,-0.05160279188744435,1.2938846756088793,-0.8666800908069597
1.8068338389138292,14.51926795446445,-0.050516241934086846,1.2730591569934706,-0.8379484029091132
1.7968373823527126,14.266703392794522,-0.049448323677077737,1.2525864597058103,-0.8103996284286745
1.7870526337925585,14.018199248493548,-0.04839916192446249,1.2324549833039358,-0.7839718965846108
1.7774758362717584,13.773688389493373,-0.04736881328353992,1.2126536066978115,-0.7586071804432647
1.7681032274639672,13.533105862524984,-0.04635727479437216,1.193171662986091,-0.7342510196863754
1.7589310508250078,13.29638880463996,-0.04536449159522077,1.173998915864156,-0.7108522660581519
1.7499555652926122,13.063476359304651,-0.04439036372873576,1.1551255374889409,-0.6883628494201113
1.7411730537012362,12.834309596786202,-0.043434752185023795,1.1365420876955712,-0.6667375625509292
1.7325798300560762,12.608831438569698,-0.042497484266577644,1.1182394944694796,-0.6459338630141779
1.7241722457943922,12.386986585564202,-0.04157835835026042,1.1002090355855008,-0.6259116905822649
1.715946695148073,12.168721449872397,-0.040677148112931015,1.0824423213325554,-0.6066332988525154
1.7078996197088079,11.95398408991424,-0.03979360627972202,1.0649312782490123,-0.588063099823232
1.700027512286105,11.742724148709367,-0.038927467947307524,1.0476681337997051,-0.5701675203155436
1.692326920138513,11.534892795136301,-0.03807845352861325,1.030645401930954,-0.5529148692324952
1.6847944476496288,11.330442667998721,-0.03724627136022704,1.0138558694448427,-0.5362752147415463
1.6774267585126883,11.12932782274039,-0.03643062000917932,0.9972925831384774,-0.5202202705516447
1.670227479571948,10.931680325299276,-0.035562169398223493,0.9791823912726635,-0.5400379901534409
1.6631975323165904,10.737643356563773,-0.03473730315535228,0.9611872960823773,-0.5616837139922423
1.6563282914796043,10.547194212093476,-0.03395510521450778,0.9433041486205773,-0.5850414881888146
1.6496113208352499,10.360310804654937,-0.03321460122903677,0.9255299257648149,-0.6099981840233911
1.6430383842318226,10.176971639537015,-0.03251476480523633,0.9078617254144027,-0.6364432417980743
1.6366014554327428,9.9971557907839,-0.03185452318556195,0.890296762116736,-0.6642684214370247
1.630292726872135,9.820842878261356,-0.03123276242051565,0.8728323631086883,-0.6933675587831334
1.6241046174236131,9.648013045474311,-0.030648332064702213,0.8554659647617683,-0.723636326567461
1.618029779274222,9.478646938055885,-0.030100049429211094,0.8381951094224852,-0.7549719990378672
1.6120611039893684,9.312725682849422,-0.029586703419323176,0.8210174426421574,-0.7872732192359153
1.6061917278490832,9.15023086750588,-0.029107057983530055,0.8039307107932538,-0.8204397679061866
1.6004150365310337,8.991144520519324,-0.028659855196963867,0.7869327590723098,-0.8543723330093755
1.594724669211383,8.835449091622838,-0.028243817999543116,0.7700215298925459,-0.8889722787896862
1.5891145221507867,8.683127432466325,-0.027857652606420005,0.7531950616725928,-0.9241414133177295
1.5835787518295805,8.534162777495943,-0.027500050605642472,0.7364514880312176,-0.9597817533918986
1.5781117776934868,8.38853872495265,-0.027169690755293928,0.7197890374017314,-0.9957952856335239
1.5727082845689857,8.24623921790409,-0.026865240489719243,0.7032060330838704,-1.032083722553366
1.5673632248058378,8.107248525220157,-0.02658535714175922,0.6867008937554752,-1.068548252298485
1.562071820203145,7.97155122239748,-0.026328688885168157,0.670272134471296,-1.105089280708445
1.5568295637747733,7.839132172132167,-0.026093875398549106,0.6539183681818378,-1.1416061642172903
1.551632221410001,7.709976504532843,-0.025879548249174985,0.6376383078114073,-1.1779969320319053
1.5464758334858901,7.584069596857546,-0.025684330991934234,0.6214307689415577,-1.2141579958972137
1.541356716489166,7.461397052647982,-0.025506838975306766,0.605294673154079,-1.2499838456233443
1.5362714647073656,7.341944680122904,-0.025345678842695007,0.5892290520966895,-1.2853667283984422
1.5312169520517407,7.2256984696787505,-0.025199447713556467,0.5732330523448266,-1.3201963097425895
1.5261903340779295,7.11264457032981,-0.025066732024553035,0.5573059411445974,-1.3543593137728773
1.5211890502748457,7.002769264901826,-0.024946106006285957,0.5414471131352486,-1.3877391402471317
1.5162108266976118,6.8960589437718305,-0.02483612976605372,0.5256560981646877,-1.4202154556349558
1.5112536790268691,6.792500076922472,-0.024735346941372426,0.5099325703288987,-1.451663755231612
1.5063159161444677,6.692079184051,-0.02464228188264257,0.49427635838582323,-1.4819548930865123
1.501396144324581,6.594782802440747,-0.024555436316224644,0.4786874577167185,-1.51095457626991
1.4964932721498412,6.50059745226573,-0.024473285431172973,0.4631660440334457,-1.538522819758647
1.491606516274342,6.4095095989565,-0.024394273323820766,0.4477124890588475,-1.564513357999552
1.486735408169547,6.321505612206661,-0.02431680772412625,0.43232737843953317,-1.588773009029928
1.4818798020055395,6.236571721144102,-0.02423925391594923,0.4170115321860643,-1.6111409869318463
1.477039883838951,6.154693965128043,-0.02415992774993554,0.4017660279745337,-1.6314481584194562
1.4722161823007518,6.075858139562062,-0.02407708763205524,0.3865922276852835,-1.649516239576926
1.4674095810022922,6.0000497360337555,-0.023988925352540942,0.37149180759778355,-1.6651569292812292
1.4626213329072115,5.92725387600365,-0.02389355559826752,0.35646679270325343,-1.6781709768059982
1.4578530769508407,5.857455237169862,-0.023789003965440137,0.34151959563463874,-1.688347182722035
1.453106857228572,5.79063797153232,-0.023673193257247215,0.3266530607407834,-1.6954613347915415
1.4483851451217946,5.7267856140744335,-0.0235439278105257,0.31187051383809333,-1.6992750845351807
1.4436908647864568,5.665880980876324,-0.023398875542853772,0.29717581814300725,-1.6995347761649637
1.4390274224980528,5.607906055382227,-0.02323554734118572,0.2825734367979487,-1.6959702485313013
1.4343987404323064,5.552841861480932,-0.02305127331627667,0.2680685022149919,-1.6882936439412017
1.4298092955697248,5.500668322047559,-0.022843175309540723,0.25366689211872967,-1.676198277058865
1.425264164554981,5.451364101676937,-0.02260813483789529,0.23937531158750106,-1.659357645327631
1.4207690755351121,5.404906432573938,-0.022342755360793682,0.22520137944247898,-1.6374247033760987
1.416330468269805,5.361270923046916,-0.022043317292278056,0.21115371582774822,-1.6100315833033392
1.4119555641943786,5.32043134891569,-0.021705723461984284,0.19724202548451733,-1.5767900285311591
1.407652448688871,5.282359429601986,-0.021325431593090943,0.18347716765253466,-1.5372929321465274
1.4034301686744468,5.247024593018466,-0.02089736855115142,0.16987119818267404,-1.4911175463260045
1.3992988499994201,5.214393737040268,-0.020415818199115626,0.15643736159930619,-1.4378311767570926
1.3952698411817273,5.184431000913008,-0.01987426997781183,0.1431899996733028,-1.3770005170625876
1.3913558934135848,5.157097568162616,-0.019265207703614274,0.13014432783062124,-1.308206232280119
1.3875713920658774,5.13235153423183,-0.01857980577345883,0.11731601147723959,-1.231064967163547
1.3839326634618039,5.110147887731841,-0.017807480267277666,0.10472045352266621,-1.1452615746148913
1.3804583943114217,5.0904386733326845,-0.016935211236544314,0.09237169046889082,-1.0505948253267672
1.3771702228241518,5.07317342339541,-0.01594650363615346,0.08028080890385403,-0.9470396490824617
1.3740935946642328,5.058299954124653,-0.014819777963037092,0.06845388380371244,-0.8348269581945056
1.371259031227557,5.045765596482244,-0.013525856403721163,0.056889692620368235,-0.7145363285169197
1.3687040486363022,5.035518825781917,-0.012023969508826044,0.04557801438289785,-0.5871846274375868
1.3664761422892175,5.027510987315615,-0.010255093962020201,0.034500370280111534,-0.4542738576836125
1.3646376978450547,5.021697252143213,-0.00812935047960681,0.023636981443902014,-0.3177395029105522
1.3632752393121832,5.018034668296746,-0.005495234849108963,0.012988857020768041,-0.17973349482781262
1.3625235345596813,5.016470234250509,-0.0020218126759097544,0.002655483441610604,-0.04221553674681927
