x,y,v_x,v_y,omega
2.375,32.48,0.0,2.1025641025641026,-5.673469387755102
2.3738888133987635,32.00137419619625,-0.009662492184667084,2.0593994087728196,-5.377238178227981
2.3706921740956313,31.532509122558015,-0.018134371320829713,2.017688188081407,-5.103548395588984
2.36566801202432,31.073080408851393,-0.025553994516657977,1.977344105019665,-4.850114732979092
2.3590444724469233,30.622782667201218,-0.03204200180853293,1.9382884310687931,-4.614932195835793
2.3510236954609227,30.18132785011956,-0.03770388502625499,1.9004491087717466,-4.39623602865026
2.3417850535056037,29.748443806799614,-0.04263213197651778,1.8637599635755953,-4.192468209301687
2.331487935333531,29.323873006888977,-0.04690802604150215,1.8281600356473104,-4.002249290090146
2.320274148460458,28.907371406662058,-0.05060316415913517,1.7935930098041668,-3.8243546195080254
2.3082699991228526,28.498707437018954,-0.05378074312438942,1.7600067262228325,-3.6576941745726463
2.295588098437015,28.097661096323634,-0.05649665414376647,1.7273527580842887,-3.501295385249389
2.2823289351617833,27.70402313396567,-0.05880041781476936,1.6955860450284514,-3.354288451025428
2.2685822487655414,27.317594312844157,-0.06073598563081311,1.6646645734194598,-3.2158937430213053
2.254428231045889,26.93818474084957,-0.0623424293226827,1.6345490960987115,-3.085410959041005
2.239938580086633,26.565613262950585,-0.06365453554041449,1.6052028856316116,-2.9622097580534152
2.225177426661401,26.19970690674986,-0.06470332033117142,1.5765915161138246,-2.8457216480741945
2.2102021501509737,25.840300375409686,-0.06551647541167059,1.548682669452891,-2.735432939784974
2.19506409851092,25.487235582709033,-0.06611875624097023,1.5214459627266885,-2.6308786094046672
2.1798092247117165,25.14036122571121,-0.06653232027384555,1.4948527937761416,-2.5316369397934895
2.1645150427974498,24.799541255231706,-0.06646056593716572,1.4687991234369198,-2.430369793988195
2.1492505550248517,24.464645175781698,-0.06627411034629853,1.4433406978675227,-2.3343347307125
2.1340406115759762,24.135538868331412,-0.06598626747000794,1.4184532799610294,-2.243192743109886
2.118907159701516,23.81209363821922,-0.06560896622095011,1.3941139384058514,-2.1566310054111155
2.1038695452072003,23.494185925233797,-0.06515289894701255,1.370300957119577,-2.07436052534482
2.0889447817429208,23.18169703363567,-0.06462765291628786,1.3469937524293614,-1.996114036148306
2.0741477915639837,22.87451288042815,-0.06404182690055754,1.3241727972012187,-1.9216441007225356
2.0594916209823153,22.57252376036005,-0.06340313467916775,1.301819551217056,-1.8507214039723534
2.044987633334192,22.27562412629423,-0.06271849704364123,1.2799163971813798,-1.7831332123787944
2.030645681951358,21.98371238371006,-0.06199412367665904,1.2584465818113961,-1.7186819824404072
2.0164742653268477,21.69669069822621,-0.06123558610169009,1.2373941615264392,-1.6571841018579248
2.0024806664092467,21.414464815135396,-0.06044788274701181,1.2167439523067323,-1.5984687492738832
1.988671077734157,21.13694389003618,-0.05963549703637861,1.1964814833386157,-1.5423768600599865
1.9750507139048974,20.864040329730212,-0.05880244930500755,1.1765929541045688,-1.4887601871071379
1.961623912762081,20.595669642627755,-0.05795234324122474,1.1570651946124457,-1.4374804468473115
1.948394226430424,20.33175029797097,-0.05708840746883555,1.1378856284900616,-1.3884085418491885
1.9353645032982223,20.072203593244204,-0.05621353281117758,1.1190422386991892,-1.3414238523030586
1.9225369618679062,19.816953529194315,-0.05533030571330981,1.1005235356476888,-1.2964135895639042
1.909913257312983,19.565926691932294,-0.054441038242544745,1.0823185275003007,-1.2532722056709975
1.8974945414856736,19.31905214163134,-0.053547795038406995,1.0644166925079812,-1.2119008534215767
1.8852815170391417,19.076261307375745,-0.052652417540131405,1.0468079531928522,-1.1722068921570432
1.8732744862570767,18.837487887750836,-0.05175654578217081,1.0294826522411378,-1.1341034349327839
1.861473395120384,18.602667756796542,-0.050861638015159395,1.0124315299701254,-1.0975089331959003
1.8498778730848526,18.371738874976526,-0.049968988380765626,0.9956457032473918,-1.0623467954963204
1.8384960447880605,18.14476518079171,-0.04900343159133977,0.9780385940118728,-1.0500747543989457
1.8273335053369844,17.92182479858353,-0.04806212885279965,0.9605734251896957,-1.0407823791131339
1.8163845685106872,17.702885597702796,-0.04714601746282915,0.9432457129036159,-1.0343118694164917
1.805643354993901,17.487916455893156,-0.046255839204875276,0.9260511723976227,-1.0305110344795454
1.7951038354823692,17.276887214648628,-0.04539215654757494,0.9089857079895597,-1.0292329018570723
1.784759870208233,17.069768636795132,-0.0445553675753495,0.8920454037799915,-1.0303353450571
1.774605245166254,16.86653236612722,-0.0437457197462076,0.8752265150713976,-1.0336807279675317
1.764633705300478,16.667150888941503,-0.04296332256488894,0.8585254604565747,-1.0391355645204117
1.7548389848915096,16.471597497316942,-0.04220815925222469,0.8419388145396196,-1.0465701920614918
1.745214835366739,16.27984625400032,-0.04148009748491216,0.8254633012570955,-1.055858456968837
1.7357550507394937,16.091871958762088,-0.040778899273741544,0.8090957877710085,-1.066877411129374
1.726453490868113,15.90765011609388,-0.04010423004261372,0.792833278909068,-1.0795070179371422
1.7173041027121914,15.727156904124222,-0.03945566696540044,0.7766729121314272,-1.0936298665219708
1.7083009397507012,15.550369144633333,-0.03883270661277518,0.7606119530067323,-1.1091308929527464
1.6994381797152296,15.37726427405141,-0.03823477195654297,0.744647791183892,-1.1258971071856028
1.690710140781139,15.207820315327563,-0.03766121877468056,0.7287779368495583,-1.1438173245443983
1.6821112963499845,15.042015850558396,-0.03711134149622879,0.7130000176649235,-1.162781900528836
1.673636288547966,14.87982999426633,-0.03658437852132179,0.6973117761791312,-1.1826824677444845
1.6652799405574987,14.721242367217883,-0.03607951704795986,0.6817110677204208,-1.2034116737386977
1.657037267892119,14.566233070671469,-0.0355958974336029,0.6661958587701249,-1.2248629185068185
1.6489034887188863,14.414782660942585,-0.03513261711624761,0.6507642258288711,-1.2469300904038472
1.6408740333271405,14.266872124171545,-0.0346887341163233,0.635414354788866,-1.2695072991576688
1.6329445528379547,14.122482851175256,-0.03426327013746763,0.6201445408310273,-1.2924886046305857
1.6251109272448316,13.98159661225952,-0.03385521328099235,0.6049531888710492,-1.3157677399159473
1.6173692728731748,13.844195531862152,-0.03346352038558813,0.5898388145843276,-1.3392378272856953
1.6097159493437734,13.710262062889651,-0.03308711900051293,0.574800046046119,-1.3627910854223049
1.6021475661240452,13.579778960600844,-0.03272490899712298,0.5598356260304694,-1.38631852627464
1.5946609887500642,13.452729255880104,-0.03237576382010202,0.5449444150194406,-1.40970963977152
1.5872533448025035,13.32909622772981,-0.032038531376080294,0.530125394983105,-1.4328520645094895
1.5799220297206058,13.208863374796657,-0.03171203455346424,0.5153776740008249,-1.4556312424029136
1.5726647125401927,13.092014385728916,-0.031395071363170504,0.5007004918056214,-1.4779300551462902
1.5654793416445938,12.978533108141463,-0.03108641468551587,0.48609322634614116,-1.4996284401925921
1.5583641506213346,12.868403515942028,-0.030784811603694204,0.47155540147501807,-1.5206029838009085
1.551317664322525,12.761609674745227,-0.03048898229899634,0.4570866958884605,-1.5407264885568273
1.5443387052332729,12.658135705070173,-0.030197618477111627,0.44268695345984677,-1.5598675126276915
1.5374264002602407,12.55796574298233,-0.02990938128838455,0.4283561951300939,-1.5778898778936072
1.530580188061846,12.461083897800307,-0.029622898697656906,0.4140946325396546,-1.5946521440105663
1.5237998270527338,12.367474206442964,-0.029336762251143185,0.3999026836111502,-1.6100070454383324
1.5170854042283302,12.277120583941151,-0.029049523178454648,0.38578099031764873,-1.6238008885370987
1.510437344970738,12.190006769581242,-0.02875968775712957,0.37173043889895596,-1.6358729060521233
1.5038564240154044,12.106116268084012,-0.028465711854467793,0.3577521828160725,-1.6460545667335564
1.4973437777792833,12.025432285152696,-0.02816599454658454,0.34384766876058603,-1.6541688385770652
1.4909009182763115,11.947937656648488,-0.027858870696647928,0.33001866605861374,-1.6600294053573488
1.4845297488756979,11.873614770572004,-0.027542602352166313,0.31626729982385954,-1.6634398379557247
1.4782325821939635,11.802445480947533,-0.02721536879334954,0.30259608821502015,-1.664192724729325
1.4720121604544407,11.734411012627923,-0.02687525502858725,0.28900798412940376,-1.6620687692213187
1.46587167870034,11.669491855968758,-0.02652023848533197,0.2755064216024817,-1.6568358694180827
1.459814811312877,11.607667650272564,-0.02614817357956443,0.2620953670600894,-1.6482482012974722
1.4538457423692965,11.548917054895025,-0.02575677375591739,0.24877937535328562,-1.6360453416822052
1.4479692004844686,11.4932176069625,-0.02534359045997688,0.23556365014692732,-1.6199514829692965
1.4421904989255594,11.44054556481463,-0.024905988313147342,0.22245410766063106,-1.5996748173452955
1.436515581989868,11.39087573661844,-0.02444111547547309,0.20945744187146798,-1.574907203700538
1.4309510789189044,11.344181294190946,-0.023945867750297663,0.19658118793283874,-1.5453242809182672
1.4255043670304604,11.300433573047286,-0.023416844323128336,0.18383377853375604,-1.5105862624355206
1.4201836463529443,11.259601861249042,-0.02285029200309921,0.17122458492922998,-1.4703397468652657
1.4149980289500825,11.221653182027868,-0.02224203323917607,0.15876393003748984,-1.4242210182183825
1.409957647498934,11.186552078764006,-0.021587370683853857,0.14646305486566918,-1.3718614990043756
1.4050737897972094,11.154260416174733,-0.0208809571572297,0.13433401112801058,-1.312896272410805
1.4003590691456178,11.124737219063682,-0.020116613726175493,0.12238944201154539,-1.2469769124955308
1.3958276456262078,11.097938580215878,-0.01928706905130457,0.11064220014327932,-1.173790241253434
1.3914955211699027,11.073817682165249,-0.018383578394824306,0.09910473942742047,-1.0930850066878985
1.3873809434634763,11.052324992692487,-0.017395358182797572,0.08778821250962437,-1.0047086757235857
1.3835049723900106,11.033408707484043,-0.01630873810820976,0.07670122408554975,-0.9086561738453391
1.3798922911431672,11.01701551636124,-0.015105881429556359,0.06584826393880924,-0.8051307255863542
1.3765723879892646,11.003091742754116,-0.013762841647859216,0.05522802829706584,-0.6946127171633752
1.3735813060777053,10.991584814541259,-0.01224656627874298,0.04483221703213691,-0.5779242286342873
1.3709642936961153,10.982444810946184,-0.010510063126388445,0.03464607509893328,-0.45626413700622054
1.368780014387343,10.975625400892799,-0.00848366999337061,0.02465314275658212,-0.3311750334726293
1.367108027212532,10.97108258473936,-0.006055348918028988,0.01484960640376713,-0.20439859799445617
1.366065958397164,10.968766708536805,-0.0030061190416935885,0.005288447531501275,-0.07759502395033485
