x,y,v_x,v_y,omega
2.375,32.48,0.0,3.0769230769230766,-6.163265306122449
2.373590530899579,31.871899204287786,-0.014094691004210106,3.004084880199038,-5.768495064122274
2.3695700982915544,31.278062654776022,-0.02610963507603718,2.9342806149185865,-5.411574766685142
2.3633251894327167,30.697904427588195,-0.036339453512338735,2.8673016569596768,-5.087783829756292
2.3551879207056827,30.130878258011013,-0.045033233758001764,2.8029600388121634,-4.793101629911727
2.34544436207291,29.576473690495423,-0.05240235256972373,2.7410856363437377,-4.524088433124431
2.3343414468315284,29.03421274169313,-0.0586267998440934,2.681523851679216,-4.277789165942816
2.3220927344576787,28.503646987897266,-0.06386032389440326,2.624133686279403,-4.05165513683865
2.308883237824345,27.984355006849825,-0.06823464243893437,2.568786124194991,-3.843479976591498
2.2948734828503214,27.475940117992472,-0.07186290730130258,2.515362764378564,-3.6513469244871417
2.2802029352284103,26.978028376065094,-0.0748425689178066,2.4637546548952103,-3.4735852282421087
2.2649929028200213,26.490266781347437,-0.07725775516608491,2.4138612922813367,-3.308733909693336
2.249349001805811,26.012321676405243,-0.0791812549760165,2.3655897571406324,-3.155511517339699
2.233363258439522,25.543877304388573,-0.08067617868687149,2.3188539630260516,-3.0127907705958688
2.217115905294189,25.084634508063054,-0.08179735276645933,2.273574000229147,-2.879577220566734
2.200676920488566,24.63430955207644,-0.08259249528977486,2.2296755596369833,-2.7549912238822385
2.1841073499855446,24.19263305365483,-0.08310320974043439,2.187089424579142,-2.6382526611284063
2.167460446241934,23.759349009120804,-0.08336582769567696,2.145751020761106,-2.5286679381962913
2.150782650935194,23.33421390543424,-0.08341212537171906,2.105600016104552,-2.4256188938353103
2.134114444945139,22.916995907454467,-0.08326993452883345,2.0665799636931577,-2.3285533046682914
2.1174910850295463,22.507474112871947,-0.08296366462708937,2.02863798213206,-2.2369767335786075
2.1009432435466513,22.10543786780587,-0.08251475020186094,1.991724468528709,-2.150445511534478
2.08449756502127,21.710686136949278,-0.08194203505195208,1.955792840037199,-2.0685606787490096
2.0681771512268043,21.323026922894407,-0.08126210289270826,1.920799300511484,-1.990962740278483
2.052001984683955,20.9422767299121,-0.0804895625357837,1.8867026293116183,-1.9173271150579532
2.035989298995522,20.568260068008748,-0.07963729434854791,1.8534639897218939,-1.847360177001528
2.0201539031940894,20.200808993557906,-0.07871666366577668,1.8210467547865392,-1.780795802975586
2.004508466234356,19.83976268321323,-0.07773770593155672,1.7894163486601857,-1.717392355838317
1.9890637668805928,19.48496703816555,-0.07670928760607547,1.7585401018166449,-1.6569300418479842
1.973828913494713,19.136274316117017,-0.07563924625272339,1.7283871186686717,-1.5992085909914358
1.9588115375990829,18.793542788617174,-0.07453451270357833,1.698928156329753,-1.5440452165084266
1.94401796455193,18.456636421644028,-0.07340121776795024,1.6701355134017237,-1.4912728163565117
1.9294533642166665,18.125424577523518,-0.07224478558468506,1.6419829278034022,-1.4407383847947448
1.9151218841169488,17.79978173646629,-0.07107001541249051,1.6144454827688506,-1.3923016068403165
1.9010267672363053,17.47958723616519,-0.06988115339394507,1.5874995202421491,-1.345833612216024
1.8871704563358986,17.164725028042874,-0.06868195561012175,1.5611225609810075,-1.3012158686771438
1.873554686419152,16.855083448869166,-0.06747574355734465,1.5352932307560678,-1.2583391973816809
1.8601805667614084,16.550555006583764,-0.06626545302009015,1.5099911920979554,-1.217102895328662
1.8470486537414024,16.251036179263835,-0.06505367717997053,1.4851970811013495,-1.1774139519017084
1.834172893038383,15.956430555910071,-0.0637039298502245,1.4608591524363004,-1.1351917361245532
1.8215652146352481,15.666645124289001,-0.06237285418112297,1.43699516377438,-1.0948936598369412
1.8092217910929933,15.381586788567887,-0.06106138124142585,1.4135881934367451,-1.0564092687751996
1.7971386269187,15.10116575972447,-0.059770260501506856,1.3906220949974124,-1.019635652284181
1.7853115926601486,14.82529540497724,-0.058500082084007574,1.3680814524748754,-0.9844768461736652
1.773736454809642,14.553892105867835,-0.057251296421056794,1.345951538619181,-0.9508432891585031
1.7624089020047724,14.286875124401462,-0.05602423162763914,1.3242182760445529,-0.9186513275180546
1.7513245679558094,14.02416647669893,-0.054819108861992746,1.3028682009807682,-0.8878227632021951
1.7404790514785784,13.765690813657134,-0.05363605591031538,1.2818884294372028,-0.8582844411316934
1.7298679339671619,13.51137530815421,-0.05247511920385124,1.2612666255920286,-0.8299678718993415
1.7194867946016759,13.261149548371435,-0.05133627445100943,1.2409909722357204,-0.8028088864828533
1.7093312235520735,13.014945436836559,-0.050219436045012215,1.22105014311304,-0.7767473199380851
1.699396833408748,12.772697094823137,-0.04912446538824323,1.2014332770211726,-0.7517267213575196
1.6896792690441655,12.534340771767631,-0.0480511782575827,1.1821299535338878,-0.7276940876593102
1.6801742160863817,12.29981475939098,-0.04699935132025298,1.1631301702326144,-0.704599619020952
1.6708774081646793,12.069059310234191,-0.04596872789677248,1.144424321335276,-0.6823964939926802
1.6617846330693733,11.842016560338386,-0.044959023056289044,1.126003177622764,-0.6610406625223365
1.6528917379517818,11.618630455818998,-0.04396992811962645,1.107857867571107,-0.640490655298618
1.644194633676154,11.398846683101404,-0.04300111463665093,1.0899798596048267,-0.6207074079758476
1.6356892984227995,11.182612602601548,-0.04205223789689379,1.0723609453937215,-0.6016540989829188
1.6273717806305483,10.969877185650027,-0.04112294002561635,1.0549932241214732,-0.5832959997437928
1.619238201356831,10.760590954471873,-0.040212852711559444,1.0378690876600647,-0.565600336248561
1.6112847561249368,10.554705925046957,-0.03932159960737962,1.0209812065891095,-0.5485361610141268
1.6035077163202838,10.352175552687662,-0.0384487984391518,1.0043225170038528,-0.5320742345632993
1.595903430190645,10.152954680181288,-0.037594062857235974,0.9878862080598699,-0.5161869156316843
1.5884757439564838,9.95718201923723,-0.03668279948437477,0.9698404013807013,-0.5373625591393457
1.5812257219210506,9.765007198392247,-0.0358174208699578,0.9519078070691219,-0.5602995061094559
1.5741442951217222,9.576407882689079,-0.03499684712332575,0.934085349962572,-0.5848833281801219
1.5672226154145963,9.391362339900603,-0.034219949947935674,0.9163700779221742,-0.6110022979798898
1.5604520645960025,9.209849416382852,-0.03348555823799971,0.8987591572553384,-0.6385471354156794
1.5538242624557161,9.031848513801233,-0.032792463164864546,0.8812498685608607,-0.6674107602643214
1.5473310738603105,8.857339566646772,-0.032139422789191956,0.8638396029837346,-0.6974880500259254
1.5409646149582263,8.68630302046143,-0.03152516623164941,0.8465258588696681,-0.7286756020119906
1.5347172585918967,8.518719810693256,-0.030948397431648966,0.8293062388120879,-0.7608714986482927
1.5285816389966662,8.354571342103323,-0.030407798520656122,0.8121784470872424,-0.7939750749720738
1.52255065586123,8.193839468647006,-0.029902032833703865,0.795140287475932,-0.8278866872947643
1.5166174778198633,8.03650647375207,-0.0294297475799661,0.7781896614734197,-0.862507481985153
1.510775545442812,7.882555050915499,-0.02898957619054481,0.7613245668922685,-0.8977391633032494
1.5050185737878594,7.731968284539647,-0.0285801403589824,0.7445430968662418,-0.9334837591816768
1.4993405545732212,7.584729630926319,-0.02820005178739952,0.7278434392670491,-0.9696433838087793
1.4937357580296258,7.440822899344646,-0.027847913648554018,0.7112238765496761,-1.0061199958151574
1.4881987344876213,7.30023223308504,-0.027522321771491394,0.6946827860463671,-1.0428151508023962
1.482724315754894,7.162942090406993,-0.027221865555783355,0.6782186407341037,-1.0796297468785683
1.4773076163376557,7.028937225283009,-0.026945128616598403,0.6618300105057271,-1.1164637617788569
1.4719440345599972,6.898202667834358,-0.026690689159984963,0.6455155639807746,-1.1532159800504578
1.466629253635525,6.7707237043464055,-0.02645712008473787,0.6292740708987516,-1.1897837086678504
1.4613592427466486,6.646485856742025,-0.026242988804025123,0.6131044051450666,-1.2260624793166204
1.456130258188593,6.525474861380683,-0.026046856776531305,0.5970055484683415,-1.2619457354403698
1.450938844637622,6.407676647038102,-0.025867278733180343,0.5809765949574568,-1.2973245019850435
1.4457818366061557,6.29307731190659,-0.025702801581480996,0.5650167563576514,-1.332087035597672
1.4406563601514941,6.181663099439074,-0.0255519629651355,0.549125368317504,-1.3661184528418722
1.4355598349098107,6.073420372840037,-0.025413289451698788,0.5333018976728803,-1.3993003337808614
1.430489976533071,5.968335587983727,-0.025285294315697905,0.5175459508902011,-1.4315102980515928
1.4254447996136377,5.866395264513713,-0.02516647487863266,0.5018572838099505,-1.4626215503136681
1.4204226211897164,5.767585954847469,-0.025055309360579963,0.48623581285247297,-1.4925023917087608
1.4154220649345985,5.671894210775012,-0.024950253190599483,0.47068162787211704,-1.5210156937182884
1.4104420661440735,5.579306547300504,-0.02484973471464961,0.4551950068729476,-1.5480183305712505
1.4054818776495983,5.489809403330231,-0.024752150230103655,0.43977643282979373,-1.573360566149087
1.4005410768000877,5.403389098758005,-0.024655858265001652,0.4244266128924764,-1.5968853911877188
1.3956195736728252,5.320031787439895,-0.02455917300762319,0.4091465002886113,-1.618427806529174
1.3907176206943146,5.239723405482927,-0.024460356777483924,0.3939373192810526,-1.6378140482854304
1.3858358238753672,5.162449614196927,-0.024357611411989815,0.3788005935789642,-1.6548607511308335
1.3809751558918577,5.08819573697453,-0.02424906842310449,0.3637381786449924,-1.669374046660084
1.3761369712740863,5.016946689271819,-0.024132777754608252,0.3487522983821028,-1.6811485950139782
1.3713230240044698,4.948686900761867,-0.024006694941557584,0.3338455867173994,-1.6899665500404846
1.366535487866568,4.883400228628258,-0.0238686664374589,0.31902113461868353,-1.6955964614920738
1.3617769799399715,4.821069860859385,-0.023716412828507703,0.3042825430700269,-1.6977921226908892
1.3570505876977743,4.761678208304822,-0.023547509593463332,0.2896339824755906,-1.6962913794839878
1.3523599002399087,4.705206784174656,-0.023359364985193625,0.27508025882607456,-1.6908149272612278
1.3477090442919573,4.651636069621716,-0.023149194494320638,0.2606268867033362,-1.6810651389050988
1.343102725723662,4.6009453640767966,-0.02291399118863165,0.24628016874586314,-1.6667249900737895
1.3385462775073163,4.553112619157648,-0.02265049097482677,0.23204728044560483,-1.6474571824831652
1.334045715264386,4.508114255319274,-0.0223551314544759,0.21793635793814656,-1.6229036155822911
1.3296078018722643,4.465924961070261,-0.022024002466740803,0.20395658455196997,-1.5926854289544525
1.3252401230755275,4.426517475718722,-0.021652785500627873,0.19011826896340633,-1.5564039414095567
1.3209511767541366,4.389862358483487,-0.021236677713281964,0.176432903388925,-1.5136429611188706
1.31675047958569,4.355927749774899,-0.020770293971184853,0.1629131836969413,-1.4639731515408294
1.3126486965296682,4.324679135021082,-0.02024753658903334,0.14957296384124458,-1.4069594314647926
1.3086578012318857,4.296079128259496,-0.019661416388791163,0.13642710377461822,-1.342172786205851
1.304791279700749,4.270087302628681,-0.019003798922576046,0.12349115253352715,-1.2692083832933385
1.3010643964101944,4.246660108627584,-0.01826503398296918,0.11078078747746588,-1.1877124963599162
1.2974945528629385,4.225750938716786,-0.017433401489589863,0.0983109116305165,-1.0974213249932396
1.294101785967317,4.20731041678113,-0.01649426746662503,0.0860943077260277,-0.9982150135666235
1.2909094809756625,4.191287006745885,-0.015428782449919637,0.07413979262641629,-0.8901892288574691
1.2879454169949074,4.177628029938834,-0.014211857357632406,0.062449975444108484,-0.7737430086793471
1.2852433330583752,4.166281121234025,-0.0128089820076885,0.05101911160398082,-0.6496728067514207
1.2828453271063458,4.157195977206136,-0.01117107751260534,0.03983232867491228,-0.519246361613837
1.280805673438875,4.150325852774689,-0.009225459162102118,0.02886891563956719,-0.38420760476267246
1.2791974558207853,4.14562743186594,-0.0068567170187960646,0.018115293447917555,-0.24664665030600824
1.2781268076384569,4.143055404190253,-0.003849764804486687,0.007604983308931078,-0.10867874173994621
