x,y,v_x,v_y,omega
2.375,32.48,0.0,3.0256410256410255,-3.3469387755102042
2.374388536191654,31.9412334659936,-0.006794042314955108,2.9606537966522612,-3.1552176443323914
2.3726363831698603,31.413954736084367,-0.012674324593866998,2.897998757894771,-2.9797575554248756
2.3698975093025383,30.897756137833145,-0.017757607265262182,2.8375412226743664,-2.818756600110779
2.3663063207601915,30.392253290888124,-0.022144487649700974,2.7791570767147635,-2.670649726708305
2.3619803494497322,29.897083301526987,-0.02592186024429601,2.722731693964539,-2.5340732774444863
2.3570225350807377,29.411903139625963,-0.029164966077862637,2.668158993824601,-2.4078354486340228
2.3515231685805387,28.93638817465363,-0.03193910614657348,2.615340616979132,-2.290891584343295
2.3455615519150674,28.470230850999194,-0.0343010790253251,2.564185201403493,-2.1823234327810948
2.3392074196075248,28.013139485953953,-0.03630039105848307,2.5146077435436145,-2.0813216658776343
2.332522159364401,27.564837176123458,-0.037980278309557185,2.466529032350758,-1.987171097209137
2.3255598628249485,27.125060800073005,-0.03937857212880404,2.419875145987622,-1.8992381400099676
2.3183682322413013,26.693560106688786,-0.04052843435616867,2.3745770027259003,-1.8169601318166646
2.3109893646349695,26.27009688013993,-0.04145898349196111,2.330569958928077,-1.7398362201061828
2.303460431475366,25.854444173505588,-0.04219582939252412,2.2877934481201763,-1.6674195577874298
2.295814269040688,25.446385604128245,-0.04276153099278608,2.2461906560725042,-1.5993106013965395
2.288079892234627,25.045714704601824,-0.043175989074557754,2.2057082275544087,-1.5351513405100983
2.2802829426512865,24.6522343240275,-0.04345678407366792,2.166296001049194,-1.4746203159210576
2.2724460800312336,24.2657560747922,-0.04361946726025374,2.1279067682318775,-1.4174283078446563
2.2645893248740947,23.886099820661265,-0.043677812263511986,2.0904960554451804,-1.3633145948784695
2.256730358819411,23.513093202441578,-0.0436440327885279,2.0540219247735827,-1.312043700455069
2.2488847884385303,23.14657119787582,-0.043528971443482306,2.018444792623742,-1.2634025567512859
2.2410663772643984,22.786375712781307,-0.04334226382465157,1.98372726398194,-1.2171980269757556
2.2332872501973027,22.432355200756028,-0.04309248136530029,1.9498339807433573,-1.1732547360633867
2.2255580738416647,22.084364309046105,-0.04278725591956351,1.9167314827002537,-1.131413167396865
2.217888215834462,21.742263548408324,-0.0424333886049089,1.884388079941766,-1.0915279895217147
2.2102858858053867,21.405918985013056,-0.04203694505148824,1.8527737355612022,-1.0534665821417315
2.2027582602505453,21.07520195262036,-0.041603338891193706,1.8218599576909362,-1.0171077351536726
2.1953115932955347,20.749988783428797,-0.04113740505336875,1.7916196999931326,-0.9823404982489304
2.1879513150618712,20.430160556144813,-0.04064346420955959,1.7620272698289299,-0.9490631617940922
2.1806821191262475,20.115602859953185,-0.04012537951959059,1.7330582434113913,-0.9171823523990524
2.1735080403691875,19.80620557318735,-0.03958660666996696,1.7046893873201272,-0.8866122288707086
2.1664325243436258,19.50186265560479,-0.039030238058493476,1.6768985858194125,-0.8572737661982249
2.1594584891507647,19.202471953268017,-0.03845904186218856,1.649664773478042,-0.8290941168770115
2.1525883806868396,18.907935015117474,-0.03787549662586547,1.6229678726390782,-0.8020060402982155
2.145824222017399,18.61815692040009,-0.03728182192347727,1.5967887353319057,-0.775947392146339
2.139167657542873,18.333046116186964,-0.03668000557125508,1.5711090892583348,-0.7508606667909685
2.132619992538655,18.052514264276958,-0.036071827808946674,1.54591148751951,-0.7266925865557902
2.1261822285828123,17.776476096839858,-0.035458882811525164,1.5211792617816193,-0.7033937325210321
2.1198550953235205,17.504849280204944,-0.03484259784727449,1.4968964786063221,-0.6809182121827059
2.1136424168049044,17.237555184019477,-0.03418716347067982,1.4730379234544166,-0.6579998848038484
2.1075471798924887,16.97451781260871,-0.03353769111171605,1.4495995366652352,-0.6360500282111665
2.1015682552139348,16.715662795302805,-0.032894805316663354,1.4265673222892687,-0.6150168621441919
2.0957044093042296,16.460918227628987,-0.03225903812450447,1.4039278740864514,-0.5948518964946301
2.0899543203425988,16.21021456798739,-0.031630839226949814,1.3816683441535436,-0.5755096888357053
2.0843165921588427,15.963484539795537,-0.031010585037002783,1.3597764135336816,-0.5569476222097008
2.078789766694647,15.72066303875788,-0.030398586787395054,1.3382402646625084,-0.5391257012850906
2.0733723350848394,15.481687044941683,-0.0297950977660218,1.3170485555174665,-0.522006365188642
2.068062747505422,15.246495539363803,-0.029200319783065184,1.2961903953478575,-0.5055543154901245
2.0628594219191236,15.0150294248139,-0.028614408953580476,1.2756553218732793,-0.48973635797041504
2.0577607518350254,14.787231450659064,-0.028037480869734798,1.255433279847132,-0.474521256940137
2.0527651131861875,14.563046141392707,-0.027469615228461978,1.2355146008901505,-0.45987960099751074
2.0478708704180666,14.342419728707014,-0.02691085997288066,1.215889984506444,-0.44578367922255546
2.0430763818705713,14.12530008688331,-0.02636123499928879,1.1965504802013684,-0.43220736690170175
2.0383800045278146,13.911636671308774,-0.02582073547578461,1.1774874706268224,-0.4191260199635681
2.033780098201781,13.701380459940687,-0.025289334813476613,1.158692655685253,-0.406516377384301
2.029275029209161,13.494483897551415,-0.02476698732674887,1.1401580375288893,-0.39435647089049103
2.024863173594397,13.290900842598223,-0.02425363061507101,1.121875906395483,-0.3826255413501595
2.020542919946462,13.09058651657227,-0.023749187695321018,1.1038388272262167,-0.3713039612984549
2.016312671851941,12.893497455690522,-0.02325356891046841,1.0860396270154429,-0.36037316309519335
2.012170850022606,12.699591464803028,-0.02276667363769772,1.0684713828455936,-0.3498155722568492
2.0081158941317194,12.508827573396168,-0.022288391816594942,1.0511274105639767,-0.3396145455465809
2.0041462643898007,12.321165993579896,-0.021818605315836667,1.0340012540612742,-0.3297543134428506
2.000260442887436,12.136568079954085,-0.021357189154880094,1.0170866751144128,-0.3202199266405884
1.9964569347299088,11.954996291255469,-0.020904012595424643,1.000377643759103,-0.31099720626903077
1.9927342689858916,11.776414153692773,-0.020458940115877056,0.9838683291597581,-0.30207269753767635
1.9890945043336883,11.601011050275531,-0.019982889353048833,0.965055042142922,-0.3429211914725225
1.9855365800468332,11.428985311530248,-0.019549602723118162,0.9463420550268854,-0.3848461825444305
1.9820529281234258,11.260319104945324,-0.019157640870297823,0.9277269070278336,-0.42774914605863656
1.978636240710971,11.094995032339071,-0.01880555260142346,0.9092072330416407,-0.4715327365376638
1.9752794720121263,10.932996112831418,-0.018491877385739555,0.89078076148782,-0.5161005719560018
1.97197583976779,10.774305766172898,-0.018215147551330232,0.8724453124957272,-0.5613570179005686
1.968718826370695,10.618907796369005,-0.017973890194168875,0.854198796436435,-0.607206970683481
1.9655021796600216,10.466786375537133,-0.017766628813313513,0.8360392128065834,-0.6535556383997219
1.962319913445322,10.317926027931914,-0.017591884683348696,0.8179646494736128,-0.7003083188796764
1.9591663078062735,10.172311614072726,-0.017448177972744682,0.7999732822951593,-0.7473701734345473
1.9560359092134356,10.029928314904545,-0.01733402861434538,0.7820633751290749,-0.7946459952306059
1.9529235305142931,9.890761615920013,-0.01724795693167966,0.7642332802546086,-0.8420399710551857
1.9498242508284451,9.754797291166415,-0.01718848402218713,0.7464814392298064,-0.8894554351522971
1.946733415395833,9.62202138705636,-0.017154131895726978,0.7288063842152512,-0.936794613707593
1.94364663542247,9.492420205894991,-0.017143423363861793,0.7112067397999555,-0.9839583584498983
1.9405597879692118,9.365980289029547,-0.01715488167233917,0.6936812253716571,-1.0308458677082417
1.9374690159307713,9.242688399518801,-0.01718702986588907,0.6762286580810785,-1.0773543931177947
1.9343707281544633,9.122531504210283,-0.017238389870867,0.658847956458034,-1.1233789300037353
1.9312615997511238,9.005496755101849,-0.017307481277348772,0.6415381447467918,-1.16881188928714
1.9281385726543459,8.891571469851126,-0.01739281979796153,0.624298358039005,-1.2135427485498975
1.9249988564886937,8.780743111281062,-0.017492915375950702,0.6071278482950533,-1.2574576796647492
1.9218399298129891,8.672999265712193,-0.01760626990965653,0.5900259913590528,-1.3004391501405268
1.9186595418112042,8.568327619931832,-0.017731374554620063,0.5729922950893855,-1.3423654950505473
1.9154557145110813,8.466715936586674,-0.017866706557857513,0.5560264087457268,-1.3831104561037666
1.9122267456194553,8.368152027757954,-0.01801072557132031,0.5391281337955908,-1.4225426840847006
1.9089712120735607,8.27262372644676,-0.01816186938306497,0.5222974363287949,-1.460525200532182
1.905687974419531,8.1801188556604,-0.018318548995040828,0.5055344612974304,-1.4969148141544653
1.9023761821430836,8.090625194748714,-0.01847914296548735,0.48883954883240244,-1.5315614870989656
1.899035280093254,8.004130442590473,-0.01864199092150699,0.4722132529258502,-1.5643076458252145
1.895665016158331,7.920622177174046,-0.018805386133192423,0.45565636281220934,-1.594987430994798
1.892265450374145,7.840087811052278,-0.01896756702443048,0.43916992742963956,-1.623425880530854
1.888836965669035,7.762514542077785,-0.019126707476791786,0.42275528339807045,-1.6494380398703519
1.8853802804776119,7.6878892987410765,-0.01928090576124485,0.4064140870098187,-1.6728279935214294
1.8818964634874573,7.616198679338872,-0.01942817190713779,0.39014835079244364,-1.693387812473311
1.8783869508198907,7.54742888409336,-0.019566413288047084,0.3739604852688172,-1.7108964129756195
1.8748535659888121,7.481565639225,-0.019693418168381327,0.3578533466018421,-1.7251183239825711
1.8712985430316587,7.418594111853146,-0.019806836911103378,0.34183029086321115,-1.7358023635489284
1.867724553265321,7.3584988144629655,-0.019904160492645002,0.3258952356943636,-1.7426802292591697
1.8641347361898526,7.301263497540319,-0.01998269590145121,0.31005273011282464,-1.7454650152344988
1.8605327351473306,7.246871028848851,-0.020039537904348724,0.29430803312570697,-1.7438496796632241
1.8569227384474822,7.195303257724177,-0.02007153653840846,0.2786672015928725,-1.7375055040023712
1.8533095268034727,7.146540862718876,-0.020075259506141533,0.26313718735492214,-1.726080610740517
1.8496985280930525,7.100563180997565,-0.020046948387416875,0.24772594288188124,-1.7091986449167935
1.8460958806919456,7.0573480181306465,-0.019982467180439244,0.23244253341721166,-1.6864577813587716
1.842508506950339,7.016871437488064,-0.01987724105963143,0.21729725150037246,-1.6574303034464182
1.8389441988529702,6.979107529475385,-0.019726182244467056,0.20230172641828997,-1.6216631225950073
1.8354117186071732,6.94402816266404,-0.01952359826438952,0.18746901592997764,-1.5786797883194243
1.8319209179894325,6.911602721863208,-0.019263075266062954,0.17281365963482406,-1.5279848012138848
1.8284828819977974,6.881797842968087,-0.018937324640993358,0.15835166142207208,-1.4690714175126467
1.8251101051218312,6.854577161837408,-0.018537973980851528,0.144100351141026,-1.401434661468817
1.8218167130514409,6.829901105574585,-0.018055271245708958,0.13007805177923012,-1.3245919724900335
1.8186187500609456,6.8077267705616045,-0.017477650870905404,0.11630344836498166,-1.2381148018627435
1.815534564530186,6.788007953075468,-0.01679107724864688,0.10279452370319099,-1.1416754139052714
1.8125853451803846,6.770695423912823,-0.01597802663803423,0.0895669114372924,-1.0351137126910366
1.8097958935370082,6.7557375611509585,-0.015015880510592947,0.07663156369452621,-0.9185280267030568
1.807195771986283,6.743081455162191,-0.01387435894190954,0.06399183618065728,-0.792389155370621
1.8048210568927496,6.73267453248587,-0.012511364319571392,0.05164063800066647,-0.6576647384831855
1.802717091869344,6.724466524388486,-0.010866024829382252,0.03955945197025287,-0.5159169711042724
1.800943016409498,6.718411083608622,-0.008845924724461492,0.027723223361580573,-0.36930245632862024
1.7995800580884602,6.714465190648923,-0.006298056620401973,0.016120031746187008,-0.22037687778899576
1.7987513735411702,6.712580755471034,-0.002909549460596859,0.0048181368970342964,-0.07162790561311563
