x,y,v_x,v_y,omega
2.375,32.48,0.0,4.0,-7.020408163265306
2.3728545809231725,31.69160627427646,-0.02145419076827704,3.883937257235359,-6.448009472936146
2.36681475354033,30.925803372097878,-0.038944083060148675,3.774091764550474,-5.946486829743778
2.3576024565826326,30.181400951409728,-0.05317888651682444,3.6699324423310173,-5.504616516943602
2.3458115414617775,29.457308462408516,-0.06473026469172474,3.570992447681116,-5.113264104030819
2.3319323453514125,28.752523352595908,-0.074061696411927,3.476858650444935,-4.764942767150554
2.3163710826877724,28.066121154658944,-0.08155093022447306,3.387163328924742,-4.453475803078318
2.29946525757666,27.397247069979997,-0.08750732088664817,3.3015775178647213,-4.173736194988324
2.281495992745444,26.745108757418134,-0.09218532742551264,3.2198056077539148,-3.921443838047463
2.262697949813554,26.10897010593561,-0.09579510189338417,3.1415809070712735,-3.6930063725221736
2.2432673543802504,25.488145819573216,-0.0985108524396566,3.0666619565527045,-3.4853933127550345
2.2233685201853293,24.88199668004301,-0.1004774895095557,2.994829438749377,-3.2960358198095925
2.2031391774603577,24.289925379701728,-0.10181593774015872,2.925883564663396,-3.1227463813641005
2.182694843304338,23.711372838531247,-0.10262740382003697,2.8596418470414564,-2.963654058898925
2.1621324206880246,23.145814934801493,-0.10299682234309696,2.79593719025605,-2.8171519910504768
2.1415331733789316,22.59275959159507,-0.10299565074783389,2.7346162418082143,-2.681854607355464
2.120965193697098,22.051744171229736,-0.10268414607050143,2.675537961845099,-2.556562581017448
2.1004854563781366,21.522333137471737,-0.10211322711911384,2.6185723757349044,-2.440233983949917
2.0801415333254187,21.004115951757733,-0.10132600340806504,2.5635994814051535,-2.33196043868478
2.059973029479247,20.496705174783163,-0.10035903505365318,2.5105082883405228,-2.2309473160980167
2.040012788518184,19.999734749026985,-0.09924337455697423,2.459195969221241,-2.136497224453033
2.0202879079563014,19.51285844126197,-0.09800543106185149,2.409567108428956,-2.047996188068158
2.000820595892144,19.035748426994118,-0.09666768957972138,2.361533034249535,-1.9649020333979639
1.981628895803944,18.568094001198514,-0.09524931130228063,2.3150112237065015,-1.88673459425418
1.9627273010652033,18.109600401760524,-0.0937666360851257,2.2699247706734136,-1.813067422124316
1.944127277038226,17.65998773376112,-0.09223360418464764,2.2262019093206136,-1.7435207464953482
1.9258377055058327,17.21898998421762,-0.09066211113928564,2.1837755861143453,-1.677755477121132
1.9078652636788345,16.786354118150925,-0.08906230713069546,2.142583074552637,-1.615468077862474
1.8902147479551692,16.361839247932632,-0.08744285010595766,2.1025656276302964,-1.5563861720622085
1.8728893509161457,15.94521586879916,-0.08581112028427633,2.0636681637044387,-1.50026476393011
1.8558908986547835,15.536265154228165,-0.08417340232934802,2.025838982005507,-1.4468829802988983
1.8392200543840476,15.134778305575075,-0.08253504037801077,1.9890295045253994,-1.3960412533070186
1.8228764933235642,14.74055595097964,-0.08090057022682368,1.9531940414289664,-1.347558877799745
1.806859053075749,14.353407589087755,-0.07927383225133024,1.9182895774898834,-1.3012718880959502
1.7911658630469578,13.97315107360312,-0.07765806803657913,1.8842755773564885,-1.257031207701791
1.775794455922592,13.59961213509591,-0.07605600320707925,1.851113807715616,-1.2147010329288979
1.7607418637478995,13.232623936859415,-0.07446991853984508,1.8187681746493198,-1.1741574174843052
1.7460047007829553,12.872026661926874,-0.07290171110959633,1.7872045746760938,-1.135287030175351
1.7315792349782262,12.51766712864534,-0.0713529469376954,1.7563907581392428,-1.0979860621025443
1.7174614496458864,12.169398432455992,-0.0698249063857029,1.726296203754223,-1.0621592632481875
1.7036470966731014,11.827079611754854,-0.06831862334214656,1.6968920032571553,-1.0277190913307936
1.6901317424298417,11.49057533590804,-0.06683491909045244,1.6681507552109878,-0.9945849582845607
1.67691080735965,11.159755613674324,-0.06537443161146331,1.6400464671261632,-0.9626825618203972
1.663979600102397,10.834495520447607,-0.06393764096106658,1.612554465141003,-0.9319432912965141
1.6513333468794409,10.514674942875008,-0.06252489126849374,1.5856513105849888,-0.9023036986267288
1.6389672167705103,10.200178339534805,-0.061136409820813746,1.559314722817025,-0.8737050262280273
1.6268763434252747,9.89089451647392,-0.059772323631543375,1.5335235077918168,-0.8460927850924368
1.6150558436787112,9.586716416508573,-0.05843267383409077,1.5082574918616478,-0.8194163769923059
1.6035008334760776,9.287540921285508,-0.05711742819224384,1.4834974603690059,-0.793628755617927
1.5922188646017403,8.99327063816559,-0.05570226055113043,1.4592053708301604,-0.7652348126136977
1.581216243258424,8.703811625053422,-0.05432395288203143,1.4353847602915366,-0.7381289610601144
1.5704856781564887,8.419071261889872,-0.052981698137322564,1.4120188713439765,-0.7122375823284561
1.5600200417414913,8.138960203893085,-0.05167466601265019,1.3890917086239,-0.6874920641936888
1.549812374127316,7.863392233507071,-0.05040201012910267,1.3665879952362365,-0.66382840620205
1.5398558856988545,7.59228412076925,-0.04916287415551457,1.3444931321419658,-0.6411868602996781
1.5301439585820162,7.3255554915274566,-0.047956397012865595,1.3227931602759575,-0.6195116032081242
1.520670147152361,7.063128702981675,-0.04678171728368795,1.3014747251818646,-0.5987504374182643
1.5114281777306937,6.804928726066514,-0.04563797693298482,1.2805250439697677,-0.5788545180136688
1.5024119475940942,6.550883034227603,-0.04452432443300895,1.259931874419328,-0.5597781028338524
1.4936155234135904,6.300921498179012,-0.043439917372029534,1.2396834860665773,-0.5414783237521626
1.4850331392147222,6.054976286259716,-0.04238392461665353,1.2197686331263629,-0.5239149770767975
1.476659193944244,5.812981770035581,-0.04135552808812995,1.2001765291150088,-0.5070503312904058
1.4684882487149156,5.574874434819169,-0.04035392420515277,1.1808968230491157,-0.490848950527232
1.4605150237905185,5.340592794803587,-0.039378325038819995,1.161919577106707,-0.47527753234969145
1.4527343953646907,5.11007731252829,-0.038427959219457235,1.1432352456462678,-0.46030475853110897
1.4451413921797602,4.883270322414894,-0.03750207262984916,1.1248346554876945,-0.4459011576802803
1.4377311920252818,4.660115958129438,-0.03659992891493501,1.106708987366882,-0.4320389786584257
1.430499118150376,4.440560083544479,-0.03572080983412235,1.0888497584826902,-0.41869207384164064
1.4234406356190656,4.22455022709007,-0.03486401547897928,1.0712488060614143,-0.40583579137355247
1.416551347633557,4.012035519296958,-0.03402886437610934,1.053898271869718,-0.3934468756348296
1.409826991846702,3.802966633348756,-0.03321469349243962,1.0367905876123038,-0.3815033752295566
1.4032634366816672,3.5972957284719804,-0.032420858157908426,1.019918461155451,-0.3699845578542632
1.396856677674018,3.3949763960042354,-0.0316467319185825,1.003274863522006,-0.3588708314744255
1.390602833849007,3.1959636079912883,-0.030891706331526953,0.9868530166074699,-0.34814367128628565
1.3845048651746334,3.0003924550899335,-0.03008798041221055,0.9688585124060781,-0.37357667350449336
1.3785630339793464,2.8084091349124414,-0.029330331540660146,0.9509746893688358,-0.40065969458815215
1.3727682401004464,2.6199918088436362,-0.028617607248339925,0.9331985713192231,-0.42928329862951237
1.367111617919006,2.4351192218450954,-0.027948614566065864,0.915527298666196,-0.4593405387505469
1.3615845439544751,2.253770679563182,-0.02732212507924262,0.8979581241529417,-0.49072671585507405
1.356178643495613,2.0759260262476893,-0.026736879509379873,0.8804884090019804,-0.5233391428904344
1.3508857963591456,1.901565623402945,-0.026191591855292125,0.8631156194454498,-0.5570769136280738
1.3456981418611973,1.7306703290951972,-0.025684953124190325,0.8458373236320383,-0.5918406749816966
1.340608083080794,1.5632214778415232,-0.025215634679842263,0.8286511889046844,-0.6275324018836546
1.3356082904896012,1.3992008610064666,-0.024782291232085803,0.8115549794458676,-0.6640551737347683
1.3306917050174725,1.2385907076328664,-0.024383563489200923,0.7945465542901241,-0.701312951429625
1.3258515406193565,1.081373665633219,-0.024018080491958634,0.7776238657063457,-0.739210353938248
1.3210812864056063,0.9275327832670328,-0.023684461645542956,0.7607849579555297,-0.7776524333954895
1.316374708394756,0.7770514908281854,-0.02338131846296158,0.7440279664329615,-0.8165444476110789
1.3117258509453602,0.6299135824641482,-0.023107256030996167,0.7273511172073989,-0.8557916288653704
1.3071290379215437,0.48610319804603463,-0.022860874207168185,0.710752726973737,-0.8952989477978082
1.3025788736454686,0.34560480500466895,-0.022640768553582782,0.6942312034399349,-0.9349708711261666
1.2980702436890272,0.20840318004329816,-0.02244553101083204,0.6777850461737431,-0.9747111118538522
1.2935983155567081,0.07448339063191156,-0.022273750312358277,0.6614128479400938,-1.014422370528978
1.289158539311796,-0.05616922381869216,-0.022124012136763356,0.6451132965659706,-1.054006066011468
1.2847466481988732,-0.1835690712129221,-0.021994898992463832,0.6288851773762993,-1.0933620540819395
1.2803586593170475,-0.3077303265757507,-0.0218849898257926,0.6127273762520141,-1.1323883320873493
1.2759908744004593,-0.4286669525379594,-0.021792859340089933,0.5966388833701021,-1.1709807276621118
1.2716398807655045,-0.5463927206444978,-0.02171707700945916,0.580618797695294,-1.2090325693884327
1.2673025524878958,-0.6609212336444585,-0.021656205766627832,0.5646663323043342,-1.2464343370648887
1.2629760518772641,-0.7722659489385606,-0.021608800339689465,0.5487808206366627,-1.2830732890370413
1.258657831322562,-0.880440203380239,-0.021573405207331486,0.5329617237801274,-1.3188330638078394
1.254345635588189,-0.9854572396499819,-0.021548552136399,0.5172086389172943,-1.3535932528892138
1.2500375046486285,-1.0873302344494462,-0.021532757259207048,0.5015213090773655,-1.3872289415813646
1.2457317771586291,-1.18607232879328,-0.02152451764078751,0.48589963436098443,-1.4196102140763474
1.241427094666739,-1.2816966607124485,-0.021522307278114036,0.47034368483067396,-1.4506016189840603
1.2371224066925135,-1.3742164007243858,-0.021524572464141398,0.45485371528868357,-1.4800615910820025
1.2328169768021946,-1.463644790472948,-0.021529726439046624,0.43943018219697066,-1.5078418248115766
1.2285103898343745,-1.5499951849957654,-0.02153614323915372,0.42407376303117733,-1.5337865948081384
1.2242025604464197,-1.6332810991390758,-0.02154215064039389,0.4087853784019333,-1.557732018596807
1.2198937431746346,-1.7135162587115147,-0.02154602207745822,0.39356621732248614,-1.579505256566481
1.2155845442267297,-1.7907146570488592,-0.02154596740159119,0.378417766050954,-1.5989236445316894
1.2112759352547062,-1.864890617752664,-0.02154012231864334,0.36334184098709665,-1.615793754724277
1.206969269390472,-1.9360588644668653,-0.021526536323697096,0.3483406261548919,-1.6299103820968883
1.2026662998662951,-2.004234598667253,-0.021503158918071766,0.33341671584899524,-1.641055454618237
1.1983692015887906,-2.069433586557956,-0.021467823856975057,0.3185731630580093,-1.6489968691599919
1.1940805960902205,-2.1316722562926103,-0.02141823112872497,0.3038135342885159,-1.653487259145067
1.1898035803468465,-2.1909678068596747,-0.021351926305015315,0.2891419713821226,-1.654262707115165
1.1855417600344087,-2.247338330079259,-0.021266276819361937,0.27456326081374227,-1.6510414258989874
1.1812992878907904,-2.300802947234331,-0.02115844461682067,0.2600829107369922,-1.6435224477488954
1.1770809079836244,-2.351381961871155,-0.02102535445483898,0.24570723563127428,-1.6313843840338302
1.172892006848717,-2.3990970302039685,-0.02086365689423557,0.2314434476968253,-1.6142843522816746
1.1687386726938813,-2.443971350271191,-0.020669684654120658,0.21729975297539314,-1.5918572175681918
1.164627764184662,-2.4860298703987738,-0.020439400438072776,0.20328544830042095,-1.5637153686937395
1.1605669907965046,-2.5252995164528684,-0.020168333443500844,0.18941101224049298,-1.5294493566266407
1.1565650074191622,-2.5618094355441485,-0.01985150032992182,0.1756881786722992,-1.4886298778562224
1.1526315269769047,-2.59559125088942,-0.01948330409265376,0.16212997478045002,-1.4408118083291723
1.1487774565194315,-2.626679317886399,-0.019057400482078764,0.14875069518934317,-1.3855413097585816
1.1450150649349755,-2.6551109643571422,-0.018566515362480968,0.13556576951805696,-1.322367467608606
1.1413581947837657,-2.6809266874188182,-0.01800218614961835,0.12259146109872006,-1.2508605007764728
1.1378225377996893,-2.7041702645729444,-0.017354383691144375,0.10984431044257367,-1.1706392952348794
1.1344260050570247,-2.724888716898505,-0.016610943735501704,0.09734021281306737,-1.08141174722576
1.1311892413345648,-2.7431320391138954,-0.015756693489098486,0.08509300934086414,-0.9830318055813033
1.128136363039092,-2.758952591150951,-0.01477208946562934,0.07311251102966841,-0.8755763191075894
1.1252960469419635,-2.7724040462495836,-0.013631071505655245,0.06140203995663416,-0.759441057056995
1.1227031754766061,-2.783539850046253,-0.012297643147918843,0.049955998010033774,-0.6354456378902136
1.1204013848864183,-2.792411336337473,-0.010720262753960284,0.03875886490218482,-0.5049184099880273
1.1184471731437375,-2.7990660908008778,-0.008821854672848147,0.027788679731850955,-0.36970557229814804
1.1169171639528768,-2.8035481121300236,-0.00647823723575911,0.017031533559624702,-0.23202718642051548
1.115924222189092,-2.805904071402118,-0.0034511804020885373,0.006528059161345107,-0.09411344983429376
