x,y,v_x,v_y,omega
2.375,32.48,0.0,2.9743589743589745,-2.979591836734694
2.37410510698699,31.80465531123814,-0.007781678373997756,2.8982035366137078,-2.7692866389931132
2.3715664669101395,31.14643314253506,-0.0142934527290513,2.825467495586993,-2.581283759249236
2.367653284613152,30.504574749446576,-0.01973421941866916,2.7559098356172114,-2.41253442966634
2.36259289032236,29.878374182240762,-0.024269209196910533,2.6893124879116086,-2.260480334007412
2.356577765478723,29.267173332825678,-0.02803622422602,2.6254775070021665,-2.122964275752786
2.349771279096937,28.670357580795837,-0.03115061387646806,2.564224684561631,-1.9981588947274616
2.342312392870334,28.087351947568774,-0.0337092663548585,2.505389517412841,-1.8845094387408285
2.334319537092586,27.51761768454961,-0.03579382736468936,2.448821465362502,-1.780687556126029
2.3258938165204497,26.96064923446515,-0.03747330804519634,2.394382448415418,-1.6855537857587992
2.31712167221065,26.415971515408657,-0.03880620769219188,2.3419455433801764,-1.5981269523641992
2.308077099694813,25.883137485419752,-0.03984224896726047,2.2913938478276776,-1.5175590753012818
2.2988235038204845,25.361725952089067,-0.0406238021138553,2.242619485482651,-1.4431147030950497
2.2894152548569746,24.851339597091133,-0.04118705843840478,2.1955227318906605,-1.37415381857061
2.2798989980495623,24.35160318998458,-0.04156300075648713,2.15001124294893,-1.3101176385280873
2.2703147589565136,23.862161969281026,-0.041778208748280934,2.105999371864602,-1.2505167706445117
2.2606968790525817,23.382680171830373,-0.041855529546780554,2.063407562488894,-1.1949212984154962
2.251074809796368,22.912839694120258,-0.04181463789855361,2.0221618089033893,-1.1429524496791337
2.2414737883037517,22.45233887123527,-0.04167250551550444,1.9821931727052267,-1.094275571007776
2.231915413687702,22.000891361040598,-0.041443795493620365,1.943437350726706,-1.04859418308998
2.222418139816006,21.55822512270324,-0.04114119469504185,1.9058342869894342,-1.005644934250718
2.2129976975462045,21.124081479987982,-0.04077569460758105,1.869327823578031,-0.9651933028361175
2.203667457298717,20.698214260902823,-0.04035682928361343,1.8338653858581377,-0.9270299261336594
2.194438741027862,20.28038900624935,-0.03989287741947289,1.7993976980851123,-0.890967455210028
2.185321091169727,19.870382240482463,-0.03939103439039667,1.765878525974767,-0.8568378526127451
2.176322502924683,19.467980799021287,-0.038857559044769244,1.7332644432528581,-0.8244900641449313
2.167449625222178,19.07298120679557,-0.038297899237883036,1.7015146195794508,-0.793788007547932
2.158707934877371,18.685189103373524,-0.03771679941261582,1.670590627568788,-0.7646088304356146
2.150101887751874,18.304418710509168,-0.03711839298300684,1.640456266903871,-0.7368413976287586
2.141635050149135,17.930492338379956,-0.036506281823418696,1.61107740378492,-0.7103849744648357
2.133310213188334,17.56323992716649,-0.035883604792244235,1.582421824158273,-0.6851480779677457
2.1251294924925626,17.202498620962803,-0.03525309691011731,1.5544590993520317,-0.6610474721616522
2.117094415183913,16.8481123713037,-0.03461714055640007,1.5271604629010507,-0.6380072874697481
2.1092059958889298,16.499931567859868,-0.033977809834757,1.500498697480076,-0.6159582471868388
2.101464803213602,16.157812694086626,-0.033336909081138025,1.4744480309828942,-0.5948369865625235
2.093884128189052,15.82161906124055,-0.03258200417581658,1.4489748633307964,-0.5713882581834372
2.086475708028007,15.491219377343395,-0.031839040702837454,1.4240658662096757,-0.5491273429682317
2.0792367236625444,15.166486417132134,-0.03110864943161899,1.3996990051926017,-0.5279788450184238
2.072164226925065,14.847297895588373,-0.030391322198637893,1.3758533560575041,-0.507873059758092
2.0652551703144204,14.533536220629564,-0.02968743093740024,1.3525090348886561,-0.4887454768899073
2.05850643266975,14.225088261275491,-0.02899724423364358,1.329647133407628,-0.47053633248592996
2.051914841283338,13.921845130139364,-0.028320941735159876,1.3072496590804439,-0.45319020480321176
2.045477190913324,13.623701979192003,-0.02765862669974658,1.2852994795922705,-0.43665564906933724
2.0391902600964036,13.330557807837017,-0.02701033692564508,1.2637802713206514,-0.4208848670517737
2.033050825108287,13.042315282415672,-0.02637605427536989,1.2426764714736702,-0.4058334077195633
2.027055671874472,12.758880566333232,-0.025755712975194762,1.221973233591018,-0.39145989573690565
2.0212016060948033,12.480163160064837,-0.025149206848012293,1.2016563861341687,-0.377725784904387
2.015485461811418,12.206075750358934,-0.024556395616206365,1.181712393917162,-0.3645951339925374
2.009904108620353,11.93653406801096,-0.023977110393055164,1.1621283221521663,-0.3520344027004646
2.00445445770161,11.67145675362946,-0.023411158465579698,1.1428918029043549,-0.34001226572499993
1.9991334668203637,11.41076523086203,-0.02285832745830103,1.1239910037689482,-0.32849944314779517
1.993938144432747,11.154383586589628,-0.02231838895575643,1.1054145985997528,-0.31746854554315496
1.9888655530129027,10.902238457635317,-0.021791101651586632,1.0871517401333972,-0.3068939323815356
1.9839128117033886,10.654258923567784,-0.021276214083318867,1.069192034366883,-0.29675158245556577
1.979077098378296,10.410376405211402,-0.020773467004442624,1.0515255165581905,-0.2870189751897157
1.974355651197318,10.170524568503183,-0.020282595438844822,1.0341426287306577,-0.27767498181357525
1.969745769719296,9.934639233363402,-0.019803330456999755,1.017034198571783,-0.2686997654840166
1.9652448156352773,9.702658287270644,-0.019335400708378345,1.0001914196261232,-0.26007468953497803
1.9608502131736851,9.474521603254274,-0.018878533740249906,0.983605832690136,-0.25178223311665293
1.9565631809530273,9.25027730140497,-0.018400007308949973,0.966344618173363,-0.26232153409015274
1.9523831875361992,9.029988647000128,-0.017947761533032014,0.9492088983904762,-0.27512000337154235
1.9483041452047525,8.813627204409848,-0.01752217178389577,0.9321949502206551,-0.290052896001553
1.9443198961170756,8.601165376923902,-0.017123472456773387,0.9152992018310538,-0.3069994072773963
1.9404242433228545,8.392576372769078,-0.01675176923210622,0.8985182256022007,-0.3258423848597025
1.9366109790707138,8.187834172692948,-0.016407050351725273,0.8818487315815379,-0.34646805212462334
1.9328739106270907,7.986913498995804,-0.016089196984128102,0.8652875614371083,-0.36876574159773995
1.9292068838080145,7.789789785898581,-0.015797992746969643,0.8488316828865622,-0.3926276373533718
1.9256038044104582,7.596439151139965,-0.015533132449171176,0.8324781845796715,-0.41794852530195364
1.922058657716182,7.406838368700527,-0.0152942301097521,0.8162242714154557,-0.4446255503195676
1.9185655262284214,7.220964842555794,-0.015080826305558483,0.8000672602778606,-0.4725579791976283
1.9151186057903042,7.038796581363517,-0.014892394895459356,0.7840045761767158,-0.5016469684071921
1.9117122202234356,6.860312173993094,-0.01472834916426764,0.7680337487834762,-0.5317953356813717
1.908340834615603,6.68549076580728,-0.014588047425581294,0.7521524093540379,-0.562907334420797
1.904999067377988,6.514312035607684,-0.014470798118897113,0.7363582880337642,-0.5948884299207757
1.9016817011845553,6.346756173156383,-0.014375864432691352,0.7206492115427843,-0.627645076404508
1.8983836928994053,6.182803857186055,-0.014302468481655691,0.7050231012426845,-0.6610844938240256
1.8951001825917824,6.022436233810417,-0.014249795062891975,0.6894779715889411,-0.6951144433590013
1.891826501733104,5.865634895245346,-0.014216995012572889,0.6740119289768892,-0.7296430005026326
1.8885581806658045,5.712381858748838,-0.014203188181335842,0.6586231709927486,-0.7645783245727703
1.8852909554299528,5.562659545684863,-0.014207466043460782,0.6433099860852854,-0.7998284234245532
1.8820207740305146,5.416450760612065,-0.014228893951654793,0.6280707536781591,-0.8353009120670931
1.8787438022257854,5.27373867029306,-0.014266513045991034,0.612903944747958,-0.8709027638002044
1.8754564289159448,5.134506782513721,-0.014319341822187814,0.5978081228984706,-0.9065400523866142
1.8721552712098868,4.9987389245940825,-0.014386377360923852,0.5827819459679666,-0.9421176836592299
1.8688371792485152,4.866419221463236,-0.014466596216222554,0.5678241682133052,-0.9775391148304724
1.8654992408635886,4.737532073159596,-0.014558954957051465,0.5529336431226937,-1.0127060596198967
1.862138786153034,4.612062131604912,-0.014662390352117994,0.5381093269180449,-1.047518177145759
1.8587533920564567,4.489994276485227,-0.014775819183337398,0.5233502828183304,-1.0818727423342716
1.8553408870184915,4.371313590054179,-0.014898137668535394,0.5086556861473143,-1.1156642953855576
1.8518993558327268,4.25600533065321,-0.015028220468547824,0.49402483038284006,-1.1487842675965203
1.8484271447653344,4.1440549047192015,-0.015164919247906203,0.47945713426072073,-1.1811205805772218
1.8449228670653854,4.035447837021792,-0.015307060751650772,0.46495215006458507,-1.2125572156089022
1.841385408978307,3.9301697388401386,-0.015453444353377739,0.450509573254136,-1.2429737495797268
1.8378139363902224,3.8282062737509257,-0.015602839021273398,0.4361292536085889,-1.2722448536019282
1.8342079022442377,3.7295431206555847,-0.015753979639461863,0.42181120809002853,-1.3002397500673835
1.8305670548853983,3.634165933623926,-0.015905562611316402,0.4075556356635103,-1.3268216235484345
1.8268914475092837,3.5420602980726734,-0.016056240659243635,0.3933629343473879,-1.351846980614104
1.8231814489104883,3.4532116827296946,-0.01620461672158765,0.3792337208089593,-1.375164953335644
1.8194377557518946,3.367605386756921,-0.016349236831398797,0.3651688528673265,-1.3966165410406215
1.8156614066042853,3.2852264813156857,-0.01648858184346551,0.3511694553173159,-1.4160337848033135
1.8118537980389977,3.206059744756537,-0.01662105785468772,0.3372369495448504,-1.4332388693232063
1.8080167030948546,3.130089590500532,-0.016744985137861768,0.32337308746388865,-1.448043147379385
1.8041522924853872,3.057299986550195,-0.016858585379246307,0.3095799903651395,-1.4602460831580333
1.800263158964714,2.987674365426159,-0.016959966974433485,0.29586019332212765,-1.4696341127297667
1.7963523453319719,2.9211955231722655,-0.017047108092888556,0.28221669584216097,-1.4759794232396675
1.7924233766272328,2.85784550591206,-0.017117837165710324,0.2686530194639823,-1.4790386576080996
1.7884802971596523,2.7976054822824743,-0.017169810378469333,0.25517327296719644,-1.4785515596710712
1.7845277131160304,2.7404555999318347,-0.017200485653024032,0.24178222573400177,-1.4742395871105844
1.7805708416324126,2.6863748241761165,-0.017207092465393644,0.2284853895331157,-1.4658045382981133
1.77661556738429,2.6353407569036698,-0.017186596648714893,0.2152891084881534,-1.4529272673403402
1.7726685079807896,2.5873294339751958,-0.017135659033898184,0.20220065610727564,-1.4352666036653512
1.7687370897646666,2.5423150997941306,-0.0170505863236916,0.1892283367715365,-1.4124586550273532
1.7648296360719526,2.500269958597414,-0.016927271873821148,0.17638158667818093,-1.3841167655030115
1.7609554706740365,2.4611639036057475,-0.01676112289066849,0.16367106542325444,-1.3498325368695512
1.757125040147065,2.424964227882395,-0.016546968648213006,0.15110872347545276,-1.3091785224412587
1.7533500605182128,2.3916353251808715,-0.016278941167891685,0.13870782175519966,-1.2617134938177772
1.7496436961128734,2.3611383960736063,-0.01595031453071245,0.12648286613406992,-1.206991596741332
1.746020782724441,2.333431185400208,-0.015553280151310963,0.11444940059112266,-1.1445772876446392
1.7424981141456937,2.308467792933193,-0.015078620533447282,0.1026235773829331,-1.0740686955029206
1.7390948225608422,2.286198621329607,-0.014515219334825538,0.09102139308302595,-0.9951329333599351
1.7358329022865662,2.2665705537112437,-0.013849304789315078,0.07965745577229544,-0.9075576472019334
1.7327379576894768,2.249527482920172,-0.01306325692450313,0.06854315980223552,-0.8113230408401864
1.7298403076172466,2.2350113298621075,-0.012133700225326192,0.057684258093963436,-0.7066961450892297
1.7271766641668977,2.222963650225779,-0.0110284167342286,0.0470781735262765,-0.5943411478467282
1.724792754322023,2.2133277564183906,-0.009701234090769366,0.03671220740752615,-0.4754219340404424
1.7227475691835212,2.206050829937393,-0.008082984504898564,0.026565414166371176,-0.3516438181926324
1.721120827399799,2.2010844886450656,-0.0060625962231187075,0.016620162288641993,-0.22515090359343853
1.7200290049013187,2.198379559944428,-0.0034315124593196503,0.006900956847328955,-0.09819284180365995
