x,y,v_x,v_y,omega
2.375,32.48,0.0,3.8974358974358974,-7.510204081632653
2.3732099080873694,31.787600554188096,-0.019889910140339414,3.7958912782518945,-6.9687873270649385
2.3681339316356165,31.113046614102863,-0.03650982821247209,3.6991525004728927,-6.486367900478615
2.3603139182013986,30.45550636201563,-0.050379209945504023,3.6068503004964025,-6.054659507589399
2.350206297549109,29.81421078562176,-0.061927686191046924,3.518656103879896,-5.666751958385709
2.338196702201059,29.188446906427657,-0.07151226212061725,3.4342758871657164,-5.316850137244763
2.32461182120145,28.577552005377715,-0.07943086009726476,3.353445235611407,-5.000068570782262
2.3097290675444087,27.980908655811152,-0.08593306942541687,3.2759253151281853,-4.712268430301655
2.29378450468212,27.39794041771391,-0.09122874015556684,3.2014995526189423,-4.44992724437512
2.2769793772952402,26.828108079473427,-0.09549489747643077,3.1299708722753072,-4.210034051374082
2.2594855161720444,26.27090635735929,-0.09888133722574181,3.061159373437325,-3.990004498187518
2.2414498297933605,25.725860981071634,-0.10151517809297263,2.99490036309219,-3.7876116934661117
2.222998051288095,25.192526107537645,-0.10350458307664216,2.931042676174379,-3.6009295890882473
2.2042378754163883,24.67048201582987,-0.1049418154978759,2.869447231689817,-3.428286386668189
2.185261593705638,24.15933304443516,-0.10590575906601732,2.8099857838069027,-3.2682260127065503
2.1661483150189675,23.65870573870022,-0.10646400411921017,2.7525398354702366,-3.119476122979991
2.1469658423522846,23.16824718154063,-0.10667458106615312,2.6969996885252008,-2.9809214172947494
2.1277722635455296,22.687623484735525,-0.10658740567557326,2.643263609309312,-2.8515812938940823
2.10861730310958,22.216518421569052,-0.10624548805720213,2.591237092540362,-2.7305910662399953
2.0895434739445746,21.75463218439617,-0.10568594710951894,2.5408322093805666,-2.6171861165976833
2.0705870609225325,21.301680253033968,-0.1049408642465042,2.4919670279772235,-2.5106884805284246
2.0517789627907095,20.85739236181129,-0.10403800388486469,2.4445650967192143,-2.4104954513202124
2.0331454143606686,20.42151155472533,-0.10300142311558956,2.3985549820136463,-2.3160698690604855
2.0147086072770275,19.993793319514737,-0.10185198892486737,2.353869853659642,-2.226931819676189
1.9964872246485506,19.57400479261088,-0.10060781805821083,2.310447111938741,-2.1426515180494543
1.9784969023455916,19.161924027910306,-0.09928465197466567,2.26822805140097,-2.0628431887440417
1.9607506277209539,18.757339323150717,-0.09789617718797541,2.2271575570389306,-1.987159789873988
1.9432590848155313,18.36004859839482,-0.09645429953894183,2.1871838291376684,-1.9152884517140363
1.9260309537011606,17.969858821749522,-0.09496937950962162,2.148258133587882,-1.8469465229694233
1.9090731704390773,17.586585477988155,-0.09345043451352586,2.110334574871741,-1.7818781351187083
1.8923911531513844,17.210052076213763,-0.0919053131275058,2.0733698892881685,-1.7198512096522551
1.875988998881087,16.840089693111814,-0.09034084543135616,2.0373232562890315,-1.6606548449347702
1.8598696552259535,16.476536548700558,-0.08876297295901557,2.0021561260582588,-1.604097029289215
1.844035070150253,16.11923761180324,-0.08717686121543278,1.9678320616897194,-1.5500026351050635
1.8284863228878763,15.768044232745027,-0.0855869972554205,1.93431659451266,-1.4982116556168619
1.8132237384354017,15.422813801023647,-0.08399727443874154,1.9015770912804641,-1.44857765172201
1.7982469877818783,15.083409425920895,-0.08241106615596361,1.8695826320834437,-1.400966381006244
1.7835551757232104,14.749699638215851,-0.0808312900514576,1.8383038979725974,-1.3552545851812656
1.7691469178545773,14.42155811133308,-0.0792604640444664,1.807713067391528,-1.3113289155416503
1.7550204081172467,14.09886340041292,-0.07770075525920771,1.777783720610272,-1.2690849789242244
1.7411734780906074,13.78149869792843,-0.07615402281456161,1.7484907514396038,-1.228426489089964
1.7276036490613633,13.469351604596753,-0.07462185528814899,1.7198102855790351,-1.1892645105181614
1.714308177765525,13.162313914443054,-0.0731056035545007,1.6917196050176173,-1.1515167833645057
1.70128409658169,12.860281412974626,-0.0716064095992192,1.664197077964925,-1.1151071198380071
1.68852824885326,12.56315368751207,-0.07012523182777955,1.6372220938412532,-1.0799648635371106
1.676037319930265,12.270833948805183,-0.06866286731661096,1.6107750029019279,-1.0460244043868583
1.6638078644463614,11.983228863133977,-0.06721997139342957,1.5848370601114603,-1.01322474276481
1.651836330281585,11.700248394161175,-0.06579707488186255,1.5593903729196574,-0.9815090972172973
1.6401190796051384,11.421805653862219,-0.06439459930087682,1.5344178526243173,-0.9508245508692549
1.6286524073436441,11.147816761912953,-0.0630128702712826,1.5099031690342066,-0.921121732236993
1.6174325573778472,10.878200712964386,-0.06165212934868338,1.4858307081720852,-0.8923545266778399
1.6064628829480538,10.612881343591425,-0.060233142093463636,1.4621622848608198,-0.8624570326540951
1.5957456942123684,10.351785000382804,-0.058846732747485635,1.4389081952349791,-0.8338127766571933
1.5852751774858522,10.09483834335229,-0.05749234199158432,1.4160546606596283,-0.8063552242714325
1.575045622491638,9.841970460471362,-0.05616938016635131,1.393588482461789,-0.7800220411305773
1.565051427248704,9.59311276605576,-0.05487723364402659,1.3714970110449052,-0.7547547852378399
1.5552871018873977,9.34819890453534,-0.05361527037048834,1.3497681169597542,-0.7304986248516749
1.5457472715329934,9.107164659268086,-0.05238284467844689,1.3283901637875029,-0.7072020795661266
1.5364266783804896,8.869947866083965,-0.05117930146048559,1.3073519827027262,-0.6848167824568574
1.527320183068871,8.636488331267152,-0.05000397977972144,1.2866428485951942,-0.6632972613793486
1.518422765449923,8.406727753706058,-0.048856215986368315,1.2662524576391891,-0.6426007376973576
1.5097295248351323,8.180609650959795,-0.04773534640019269,1.246170906208156,-0.6226869408903798
1.5012356797940714,7.958079289007397,-0.04664070961159768,1.226388671040699,-0.6035179376410742
1.4929365675687327,7.739083615462306,-0.04557164844772102,1.2068965905714124,-0.5850579741395191
1.4848276431604446,7.523571196049662,-0.044527511644368016,1.187685847346841,-0.5672733304626714
1.4769044781390765,7.311492154157669,-0.04350765525972109,1.1687479514530668,-0.5501321859961501
1.4691627592181682,7.102798113287054,-0.04251144386148493,1.1500747248870844,-0.5336044949629091
1.4615982866342516,6.897442142234379,-0.04153825151536489,1.1316582868092988,-0.5176618712107698
1.4542069723639166,6.6953787028558125,-0.04058746259947038,1.11349103961921,-0.5022774814892839
1.4469848382079946,6.496563600268022,-0.039658472466326956,1.0955656558006808,-0.48742594651695426
1.4399280137685793,6.300953935352119,-0.03875068797162151,1.0778750654871478,-0.47308324920334677
1.4330327343413438,6.108508059435206,-0.03786352788655097,1.0604124447007754,-0.4592266494478243
1.426295338742775,5.919185531032078,-0.036996423208658355,1.04317120422289,-0.4458346049882196
1.4197122670894098,5.73294707453697,-0.0361488173842886,1.0261449790560997,-0.4328866978193175
1.4132800585439411,5.549754540762201,-0.03532016645425136,1.009327618441322,-0.42036356574308653
1.4069953490410962,5.369570869226884,-0.034509939132913926,0.9927131763955382,-0.40824683865063843
1.4008621499639404,5.192582464354366,-0.03363671727992915,0.9738246555213257,-0.44590941950340457
1.3948812993299864,5.0189847399506,-0.03281717865289182,0.955038948964961,-0.48476298204614177
1.3890433027414948,4.8487594187772345,-0.03204945010812721,0.9363535085168743,-0.5247041800450758
1.3833390026061496,4.681888673176669,-0.03133166250681974,0.9177658870449518,-0.5656311259409178
1.3777595772489968,4.5183551071026535,-0.030661952572656564,0.8992737359996777,-0.607443161751853
1.3722965397144977,4.358141738567166,-0.030038464477334055,0.8808748032835235,-0.6500406311815933
1.3669417363062766,4.201231982437946,-0.02945935116956767,0.8625669314856103,-0.6933246519137983
1.3616873449095328,4.047609633520533,-0.028922775460918763,0.8443480564856273,-0.737196887050678
1.3565258731388987,3.8972588498577565,-0.028426910879460462,0.8262162064341234,-0.7815593146215101
1.351450156352745,3.750164136177915,-0.02796994230002576,0.808169501119659,-0.8263139940456252
1.3464533555735685,3.6063103274208217,-0.02755006635749092,0.7902061517369524,-0.871362828383517
1.3415289553531444,3.4656825722678235,-0.02716549164722162,0.7723244610741468,-0.9166073211484295
1.3366707616205966,3.328266316598395,-0.02681443871442119,0.7545228241417191,-0.9619483263782389
1.3318728995514508,3.1940472867912995,-0.026495139831641906,0.7367997292704325,-1.0072857905827635
1.327129811496102,3.0630114727829536,-0.02620583856112061,0.7191537597111829,-1.0525184850837874
1.322436255006975,2.935145110789133,-0.025944789095845692,0.7015835957757147,-1.0975437271529478
1.3177873010050205,2.810434665588552,-0.025710255370316907,0.6840880175640824,-1.1422570882249994
1.3131783321281016,2.688866812257853,-0.025500509928781837,0.6666659083325629,-1.1865520873195874
1.3086050413063361,2.570428417237107,-0.02531383253527801,0.6493162585646162,-1.2303198676422082
1.3040634306126186,2.4551065185927037,-0.02514850850602718,0.6320381708176356,-1.273448854153296
1.2995498104404257,2.3428883053304332,-0.02500282674056143,0.6148308654298129,-1.3158243896921957
1.2950607990656742,2.2337610955951277,-0.02487507742334584,0.597693687184709,-1.357328347019328
1.2905933226549455,2.127712313574335,-0.024763549362526924,0.5806261130463173,-1.3978387138947268
1.2861446157889151,2.0247294649016325,-0.024666526926698344,0.5636277610948335,-1.437229148044729
1.2817122225774396,1.9248001103298975,-0.02458228653414084,0.5466984008133251,-1.4753684985824964
1.277293998451609,1.8279118374158436,-0.024509092641754694,0.5298379648983755,-1.5121202901456356
1.272888112728305,1.7340522299235346,-0.02444519317273413,0.5130465627939542,-1.547342165701562
1.268493052054608,1.6432088346160931,-0.024388814312787496,0.4963244961776024,-1.5808852836584575
1.2641076248529783,1.5553691250605368,-0.024338154594209002,0.4796722766619083,-1.6125936646225276
1.2597309669037364,1.4705204620198415,-0.024291378175145793,0.4630906460124782,-1.6423034828849636
1.255362548219279,1.388650049948346,-0.02424660720771516,0.4465805992263614,-1.669842297540807
1.2510021813850256,1.3097448890403847,-0.02420191317287741,0.4301434108620992,-1.6950282180904952
1.2466500315657116,1.2337917222070587,-0.024155307041723546,0.4137806650637277,-1.7176689995319772
1.242306628402821,1.160776976271574,-0.024104728101504342,0.3974942897749883,-1.7375610624318587
1.2379728800603318,1.0906866965793327,-0.024048031259486798,0.3812865956943429,-1.754488434435107
1.2336500897123124,1.023506474115358,-0.02398297260739553,0.365160320572041,-1.7682216113768026
1.2293399748083635,0.9592213641097267,-0.023907192992037044,0.3491186794905219,-1.7785163389477021
1.2250446895028833,0.8978157949946954,-0.023818199291077407,0.3331654217876197,-1.785112320247517
1.2207668506937361,0.8392734664603658,-0.023713343032779555,0.3173048952604798,-1.787731861275174
1.2165095681881284,0.7835772352490373,-0.023589795918418633,0.30154211819872956,-1.7860784765277227
1.2122764796028374,0.7307089872476276,-0.02344452169592653,0.28588285959473003,-1.7798354919699584
1.2080717907192977,0.6806494944091313,-0.02327424367673672,0.2703337274996682,-1.7686647049656676
1.2039003221621436,0.6333782550990499,-0.023075406958308595,0.2549022648345614,-1.7522051936296281
1.1997675634696772,0.5888733166856355,-0.022844134069097098,0.23959705087005684,-1.7300724162570391
1.1956797359036946,0.547111079672991,-0.022576172219598956,0.2244278048260101,-1.7018578119325272
1.1916438657484822,0.5080660835645538,-0.022266829504982356,0.20940548526772407,-1.6671292160193332
1.1876678704470047,0.4717107761681305,-0.021910896066990218,0.1945423746925688,-1.6254325529369016
1.183760660835345,0.4380152705468987,-0.021502544062561732,0.17985213220998256,-1.5762954825671056
1.1799322641604273,0.4069470977646077,-0.02103519676985642,0.16534978759326152,-1.5192339806443764
1.176193974824254,0.3784709696301434,-0.0205013514098453,0.15105163612301473,-1.453763256700542
1.1725585434217316,0.35254857466827616,-0.01989233084040391,0.13697497456443264,-1.3794149816041485
1.1690404204957563,0.3291384434681959,-0.019197923892654113,0.12313759432533267,-1.2957635117510278
1.1656560809201884,0.30819593704300274,-0.018405849169212767,0.1095569215101482,-1.2024645811156387
1.162424470153401,0.28967343322280215,-0.01750093712842467,0.09624867649205117,-1.0993105097717526
1.1593676382370741,0.2735208071074595,-0.016463861941873215,0.08322494701177419,-0.9863056378656185
1.156511666784339,0.25968630951594207,-0.015269154199627799,0.07049169289397159,-0.863762909419794
1.1538880577485187,0.2481179127882882,-0.013882057309485121,0.0580460485244193,-0.7324145797637331
1.1515358618038805,0.23876505869438347,-0.012253453186495183,0.045874552518946475,-0.5935134244437911
1.1495050459660823,0.23158041032066023,-0.010311167233483631,0.03395487385576604,-0.44887460041265154
1.147862202752735,0.2265205001646322,-0.00794264624815227,0.0222663501000674,-0.300781633030167
1.1467020083348254,0.22354243163045595,-0.00494840283973249,0.010823300279646002,-0.15167731651056393
1.1461823774547735,0.22258509366309198,-0.000825273605289824,-0.0001862117533759991,-0.0036568728850347454
