x,y,v_x,v_y,omega
2.375,32.48,0.0,3.7435897435897436,-2.2448979591836737
2.374129297036679,31.632218768312946,-0.007571330115832618,3.6284209667324463,-2.0486971437554304
2.371691460861205,30.810184749413658,-0.013627245323073616,3.5197009367396097,-1.8785558915937628
2.368001337637211,30.01247798392726,-0.018460782711657076,3.4168796327073574,-1.7300719610186894
2.3633133878923505,29.23779789139009,-0.022303997678433524,3.319468998050599,-1.599710480081709
2.35783412512262,28.48495002156497,-0.02534176553661619,3.2270342178200346,-1.4846119840989498
2.351731769046931,27.75283464086061,-0.027722200338940108,3.139186483957004,-1.382447186714495
2.3451437889664852,27.040436846352605,-0.02956458296928371,3.0555769465473657,-1.2913061382296154
2.338182836436745,26.346817961095613,-0.030965439028458854,2.9758916209047417,-1.2096129303353365
2.3309414393895134,25.671108011359788,-0.03200323094746747,2.8998470724502714,-1.13605954988689
2.3234957373540204,25.012499122937882,-0.032742004143774255,2.8271867399141244,-1.0695542072507216
2.315908469511492,24.370239702416626,-0.03323423796516681,2.757677786357665,-1.0091806924757223
2.308231377035605,23.7436292921818,-0.033523087912112726,2.6911083895973142,-0.9541661960589616
2.300507143654768,23.132014006302875,-0.033644158877772695,2.627285400654251,-0.9038556727682259
2.2927709701758507,22.53478246932965,-0.03362691485194322,2.5660323121564037,-0.8576912970802826
2.2850518573711356,21.951362192184437,-0.03349580518905789,2.5071874891062977,-0.8151959059935917
2.277373655377138,21.38121632931859,-0.03327116867179025,2.4506026227706137,-0.7759595833840005
2.269755925297049,20.82384076955918,-0.03296996245942081,2.3961413751373293,-0.7396287338035117
2.2622146490949544,20.278761519937454,-0.03260635234140117,2.3436781867907257,-0.7058971398716736
2.2547628164245523,19.745532347529817,-0.032192192618616264,2.2930972254495714,-0.6744986085428256
2.247410911231921,19.223732649161995,-0.03173741775209402,2.2442914560097864,-0.6452008965133311
2.2401673164256617,18.712965522893327,-0.03125036317189902,2.1971618158916364,-0.6178006704059713
2.2330386513288007,18.212856018642857,-0.030738028974716784,2.151616481938562,-0.5921193079469813
2.226030053796204,17.723049548247864,-0.03020629739568757,2.1075702171483206,-0.5679993856983223
2.219145416632503,17.24321043774612,-0.0296601127234564,2.0649437872146708,-0.5453017296791529
2.2123875861513373,16.773020606814136,-0.029103630591023236,2.023663438280828,-0.523902929397037
2.2057585292793793,16.312178362133945,-0.028540342208613345,1.9836604285034602,-0.503693234912822
2.1992594744525227,15.86039729304673,-0.027973178024921004,1.944870607037548,-0.48457477172226393
2.192891030618359,15.417405259222775,-0.027404594446071857,1.9072340349099055,-0.46646002032096817
2.1866532879028013,14.98294346126562,-0.026836646558776142,1.8706946429783984,-0.4492705169928964
2.180545902883881,14.556765586201553,-0.026271049257920426,1.8351999227960996,-0.4329357401396049
2.174568170914086,14.138637020705815,-0.025709228740298695,1.8007006467320483,-0.41739215274471186
2.1687190875220765,13.728334125703547,-0.02515236597282562,1.7671506141572417,-0.4025823766547902
2.162997400587546,13.325643566672227,-0.024601433457873096,1.7345064208977228,-0.3884544784953426
2.1574016547054318,12.930361694576952,-0.024057226386602102,1.7027272494959573,-0.3749613504181639
2.15193022892648,12.542293972901668,-0.02352038908253997,1.6717746781152103,-0.36206017164352056
2.146581368871366,12.16125444670816,-0.022991437483669462,1.6416125061761715,-0.34971193903528436
2.1413532140579448,11.787065250068721,-0.022470778285213242,1.6122065950363216,-0.33788105682329306
2.1362438211500425,11.419556148584789,-0.021958725261761222,1.5835247222152644,-0.3265349771395743
2.131251183726695,11.05856411402872,-0.02145551320212932,1.555536447837524,-0.31564388432356183
2.1263732490791574,10.703932928434579,-0.020961309819940363,1.5282129921115264,-0.3051804170241336
2.1216079324662305,10.35551281522061,-0.02047622594463913,1.501527122792553,-0.29511942302199
2.116953129193929,10.013160095155023,-0.020000324249285686,1.4754530516908269,-0.28543774244590453
2.1124143032205733,9.67673716889713,-0.019467727692938464,1.4499636983777893,-0.27420055336392335
2.10799625627106,9.346111890613834,-0.018950071868048143,1.4250387214769644,-0.2635311331897313
2.1036955872625387,9.02115698549073,-0.018447049945179646,1.4006561056804443,-0.2533935315291233
2.099508967927072,8.701750114967723,-0.017958335580617393,1.376794942345691,-0.24375450545432356
2.095433146727643,8.387773630188846,-0.017483587892682367,1.353435360079319,-0.23458328356917862
2.091464951719183,8.079114340823917,-0.017022455659140633,1.3305584604852703,-0.22585135334854922
2.087601292520677,7.775663298125277,-0.016574580849608573,1.3081462586333497,-0.21753226919460855
2.0838391615401193,7.477315591180005,-0.016139601590021275,1.2861816278472777,-0.2096014789617617
2.08017563457344,7.183970155405827,-0.015717154641970935,1.2646482484499337,-0.20203616697026333
2.0766078708808364,6.895529592418232,-0.015306877467628755,1.2435305601378557,-0.1948151117621019
2.073133112828879,6.611900000468278,-0.01490840994069339,1.222813717687813,-0.1879185570562286
2.069748685173866,6.332990814715711,-0.0145213957550745,1.2024835497258117,-0.18132809453789434
2.0664519940508406,6.058714656661181,-0.01414548357558246,1.1825265203135835,-0.1750265572722577
2.063240525723265,5.788987192115194,-0.013780327968554029,1.1629296931297903,-0.16899792266855912
2.060111845140214,5.523726997130311,-0.013425590144931008,1.1436806980431082,-0.1632272240406033
2.0570635943410234,5.26285543136774,-0.013080938543683397,1.1247676998923042,-0.15770046991425823
2.054093490741356,5.006296518410096,-0.01274604927951163,1.1061793693046,-0.152404570325068
2.051199325329544,4.753976832569272,-0.012420606475374003,1.0879048553982125,-0.14732726943050947
2.048378960797666,4.505825391772241,-0.012104302497481149,1.0699337602281531,-0.14245708383331027
2.045630329628046,4.261773556138678,-0.011796838107907721,1.0522561148463012,-0.13778324607579037
2.042951432152636,4.021754931892733,-0.011497922547832152,1.0348623568575686,-0.1332956528214441
2.040340334599939,3.7857052802772806,-0.011207273562577098,1.017743309363771,-0.12898481728984415
2.0377951671417676,3.5535624311629412,-0.010924617378042472,1.0008901611957097,-0.12484182555520915
2.035314121950065,3.3252662010661,-0.01064968863676293,0.9842944483420445,-0.12085829635831517
2.0328976809350343,3.1008594960570193,-0.010362841928719982,0.9670682039108363,-0.13450431536397262
2.030544711125023,2.8804006067939447,-0.010097765114856853,0.9499656157680613,-0.1503165313963528
2.028250143285615,2.66386151034866,-0.009854998706086892,0.9329830489735366,-0.16817504281959478
2.026008800631164,2.4512150031437834,-0.009634937419568307,0.9161170136775557,-0.1879636511700231
2.0238154309284315,2.242434668352068,-0.009437842604194188,0.8993641584243186,-0.20956958969278683
2.0216647358560413,2.0374948447789016,-0.009263853677460519,0.8827212639510386,-0.23288326201018378
2.019551397838624,1.8363705971169644,-0.009112998647906451,0.866185237457108,-0.25779798985100133
2.017470104558132,1.6390376874675248,-0.00898520379115632,0.849753107320617,-0.28420976880906185
2.015415571329832,1.4454725480277872,-0.008880302541887665,0.8334220182423194,-0.31201703113087914
2.013382561516758,1.2556522548479379,-0.008798043658755281,0.8171892267998416,-0.34112041455705805
2.011365905143848,1.0695545025652322,-0.008738098714373352,0.8010520973975843,-0.3714225362598683
2.009360515861542,0.8871575800254661,-0.008700068957854487,0.7850080986003749,-0.40282777093028876
2.0073614063981835,0.708440346704645,-0.008683491593087282,0.7690547998415412,-0.4352420320716636
2.0053637026311137,0.5333822098455165,-0.008687845511866254,0.7531898684987176,-0.4685725555537762
2.003362656397779,0.3619631022248271,-0.008712556517134804,0.7374110673333895,-0.502727684470377
2.001353657160496,0.19416346046779154,-0.008757002067929587,0.7217162522929813,-0.5376166543246679
1.999332242631664,0.029964203826217783,-0.008820515574090405,0.7061033706772192,-0.5731493775405171
1.9972941084601237,-0.13065328666412768,-0.008902390265390995,0.690570459673608,-0.6092362262617208
1.9952351170741154,-0.2877071887326679,-0.00900188265642024,0.6751156452701957,-0.6457878123568139
1.9931513057717214,-0.44121525921784155,-0.009118215625267068,0.6597371415574105,-0.6827147634919977
1.9910388941459234,-0.591194854296937,-0.009250581120801508,0.6444332504347088,-0.7199274940688251
1.988894290928374,-0.737662949697274,-0.009398142510063144,0.629202361742146,-0.7573359697453524
1.986714100333715,-0.8806361609894324,-0.009560036573928668,0.6140429538418367,-0.7948494641683705
1.984495127984797,-1.020130764069414,-0.009735375155791759,0.598953594679728,-0.8323763064387713
1.9822343864984742,-1.1561627159444754,-0.009923246464407164,0.5839329433642568,-0.8698236177106272
1.9799291008118154,-1.2887476759464889,-0.01012271602827844,0.5689797523054368,-0.907097035185561
1.9775767133296438,-1.417901027507689,-0.010332827294952463,0.554092869965869,-0.9441004216057066
1.9751748889763339,-1.543637900646452,-0.010552601864264434,0.5392712442842643,-0.9807355581691607
1.9727215202378563,-1.665973195326032,-0.010781039339889099,0.524513926842505,-1.016901818589348
1.9702147322842505,-1.7849216058667352,-0.01101711677842294,0.5098200778592928,-1.0524958217922555
1.9676528882681317,-1.900497646612891,-0.01125978770956495,0.49518897210729773,-1.087411060491211
1.965034594901643,-2.0127156790799035,-0.011507980694685054,0.48062000586675235,-1.1215375025962862
1.962358708422587,-2.121589940834987,-0.011760597384061449,0.4661127050469875,-1.154761162103591
1.9596243410705212,-2.2271345763977095,-0.012016510025207346,0.451666734628879,-1.1869636357687614
1.9568308682055495,-2.3293636704847245,-0.012274558365851297,0.43728190960604174,-1.218021601500583
1.9539779362166878,-2.4282912839670274,-0.012533545885119048,0.42295820763135944,-1.2478062740191815
1.9510654713832631,-2.523931492959626,-0.012792235275096226,0.4086957836086334,-1.2761828129167698
1.9480936898721968,-2.6162984315229636,-0.013049343082003778,0.3944949865073184,-1.303009677851582
1.9450631090766028,-2.705406338524341,-0.013303533401421031,0.38035637872203937,-1.3281379252202554
1.9419745605273626,-2.7912696092874256,-0.013553410505015365,0.36628075834827556,-1.3514104403263347
1.9388292046397686,-2.8739028527496515,-0.0137975102566724,0.3522691848014969,-1.3726610988479246
1.9356285475926285,-2.9533209549527513,-0.01403429015324131,0.338323008268944,-1.3917138513892313
1.9323744606781643,-3.02953914981196,-0.014262117798621746,0.32444390355024905,-1.4083817252040907
1.9290692025086258,-3.1025730982452373,-0.014479257588669109,0.3106339089130451,-1.4224657379914891
1.9257154445210205,-3.172438976895954,-0.014683855347028924,0.29689547065842237,-1.4337537202614803
1.922316300286361,-3.239153577849045,-0.014873920606532224,0.28323149415107984,-1.4420190455674275
1.918875359206582,-3.3027344209187888,-0.015047306174155001,0.26964540210754834,-1.4470192725095192
1.915396725273877,-3.3631998802683185,-0.015201684545016874,0.25614120093182924,-1.448494709744302
1.9118850616781902,-3.420569327293279,-0.015334520634870135,0.24272355580696284,-1.4461669266371249
1.9083456421857874,-3.4748632918405136,-0.015443040168631909,0.2293978750385699,-1.4397372496803358
1.9047844103858536,-3.5261036438972155,-0.01552419287426998,0.21617040371537263,-1.4288853113661018
1.9012080481297735,-3.574313797810518,-0.01557460935251481,0.20304832596550632,-1.4132677583125117
1.8976240547966934,-3.619518940775883,-0.015590550065572053,0.1900398737333463,-1.3925172857345283
1.8940408394545716,-3.6617462865966743,-0.015567844213748466,0.1771544377517722,-1.3662422556597054
1.8904678286244048,-3.701025354303397,-0.015501815179005162,0.16440267274145715,-1.334027291040498
1.8869155933256456,-3.737388268724338,-0.015387187418900883,0.1517965830928014,-1.2954354379192867
1.8833960006027077,-3.770870075906849,-0.015217966693603245,0.13934956632035855,-1.250012782125563
1.8799223971820065,-3.801509059504916,-0.014987280442929126,0.12707637801065724,-1.1972968338145131
1.8765098369303828,-3.82934703362605,-0.014687156527712932,0.11499296217314045,-1.1368305964494099
1.873175370479381,-3.8544295715923838,-0.014308203915779433,0.1031160636210553,-1.0681850505418748
1.8699384266108154,-3.8768061070263897,-0.013839134071747507,0.09146250537029267,-0.9909937830306207
1.866821333888788,-3.8965298131277137,-0.01326602003283792,0.0800479824672907,-0.9050044787908818
1.8638500627192756,-3.913657131537825,-0.012571120571619585,0.06888522109892227,-0.8101523110747378
1.8610553209947494,-3.9282467982544844,-0.01173098138078176,0.05798144600243559,-0.7066583081900812
1.8584742255651383,-3.9403582394298837,-0.010713326702794004,0.04733543378362777,-0.5951482463950879
1.8561529290899488,-3.950049369166088,-0.00947186003798358,0.036935259574694936,-0.47676948493566934
1.8541509063505521,-3.9573742725436674,-0.007937033348074747,0.026759552404262532,-0.35325099829639023
1.8525485080515156,-3.962382301309418,-0.00599686490441638,0.016788523819664596,-0.2268145274819765
1.8514631196115392,-3.9651228814815127,-0.0034412954432030455,0.007042608111594684,-0.09983454058139982
