x,y,v_x,v_y,omega
2.375,32.48,0.0,2.923076923076923,-5.795918367346939
2.373611036177861,31.87339710443302,-0.01322822687751476,2.8540935108942755,-5.425672474889913
2.369648569987565,31.280979996317836,-0.024509546363401608,2.787974185440809,-5.090834572810827
2.363492566202806,30.702167807938853,-0.03411906111049301,2.7245228467399873,-4.7870004580430585
2.3554696701843474,30.136418824861835,-0.04228947239863549,2.6635627063744645,-4.510417120992152
2.345861349577444,29.583226705003845,-0.04921834290520676,2.6049336732254504,-4.2578723094111535
2.3349106564718123,29.042117198564878,-0.05507397238652368,2.5484901976218497,-4.026605207454687
2.3228278702754177,28.512645282781317,-0.060000181864850406,2.494099476507315,-3.8142337239870217
2.3097952268500093,27.994392643423993,-0.06412023171047197,2.4416399459434097,-3.6186949495007625
2.295970897553367,27.486965448616345,-0.06754004730517012,2.3910000046056026,-3.438196129229314
2.2814923494086896,26.989992371034667,-0.07035088740603948,2.342076924743727,-3.2711740898577966
2.26647919230248,26.503122822688645,-0.07263156122452935,2.2947759166469335,-3.1162615031428635
2.2510355991795428,26.026025372854626,-0.07445027804153807,2.2490093198675254,-2.972258710030147
2.235252369395364,25.558386324773906,-0.07586619609349807,2.2046958999488853,-2.8381100907680996
2.2192086927648083,25.0999084307492,-0.07693072419751024,2.161760233619748,-2.7128841697023125
2.2029736617079156,24.65030972850728,-0.07768861920146773,2.1201321686842425,-2.5957568022102278
2.1866075707046844,24.2093224843195,-0.07817891416263974,2.0797463473898543,-2.485996916143567
2.170163035622527,23.776692230516602,-0.0784357056674283,2.0405417840662814,-2.382954379021655
2.153685960057262,23.35217688680006,-0.07848882352557199,2.0024614894246002,-2.286049640941742
2.1372163713858527,22.93554595621623,-0.07836440191641914,1.9654521351832812,-2.1947648661885895
2.120789145574676,22.526579787881733,-0.07808536771383377,1.9294637537167096,-2.1086363172238225
2.104434636769576,22.125068899574494,-0.07767185900140754,1.8944494682569886,-2.027247795717105
2.0881792251934668,21.730813354172,-0.07714158458058595,1.8603652498620447,-1.9502249785563708
2.0720457947982047,21.343622184654464,-0.07651013346952705,1.8271696979240104,-1.877230513906143
2.056054150383314,20.963312863019567,-0.07579124191038746,1.7948238414559208,-1.807959764593977
2.040221382443349,20.589710808994703,-0.07499702418451609,1.7632909587809151,-1.7421371043566172
2.024562186788431,20.22264893489772,-0.07413817252898705,1.73253641357127,-1.6795126875294966
2.009089144958375,19.861967223399816,-0.07322413061440367,1.702527505456401,-1.6198596252192987
1.9938129705869807,19.50751233529377,-0.07226324435125592,1.6732333336487881,-1.5629715113410552
1.9787427261425408,19.159137244676288,-0.07126289321483914,1.6446246722319913,-1.5086602505145819
1.963886013851372,18.816700899220173,-0.07022960479629164,1.6166738559215126,-1.4567541470105305
1.9492491440850426,18.48006790344695,-0.06916915488303503,1.5893546752520158,-1.407096219964779
1.9348372840439352,18.14910822311743,-0.06808665503227386,1.5626422802672444,-1.3595427151447217
1.9206545891874511,17.823696909040386,-0.06698662931519497,1.536513091895074,-1.3139617878177288
1.906704319534208,17.503713838761783,-0.06587308166807125,1.5109447202820958,-1.2702323348757494
1.8929889426754287,17.18904347474074,-0.0647495550822086,1.4859158894421147,-1.2282429574214149
1.8795289366035073,16.879578294933147,-0.06344097893609131,1.4613715372968819,-1.1828640750168238
1.8663422772405551,16.575214687947483,-0.06214625309202393,1.4373294816141833,-1.139630398275276
1.853425898154716,16.27584911363842,-0.060866881058824256,1.4137712260911888,-1.0984144993283618
1.840776443101411,15.981381823771233,-0.05960411944884297,1.3906791535962972,-1.0590979580469895
1.8283903147344993,15.691716682921644,-0.05835900785507752,1.3680364735426498,-1.0215706244059244
1.8162637174132699,15.406761000031292,-0.05713239520425007,1.3458271730321427,-0.985729949304097
1.8043926948002358,15.12642536986025,-0.05592496301512163,1.3240359714539691,-0.9514803767545054
1.7927731628603323,14.850623523641111,-0.054737245936341515,1.3026482782521123,-0.9187327911656191
1.7814009387985035,14.579272188296294,-0.0535696498905999,1.2816501536032907,-0.8874040141437416
1.7702717664083674,14.31229095363199,-0.05242246811069534,1.2610282717710284,-0.8574163458663493
1.7593813382484127,14.049602146969104,-0.05129589531744481,1.2407698869231343,-0.8286971466215682
1.748725315012951,13.791130714714154,-0.050190040258381516,1.2208628012192435,-0.8011784545885957
1.7382993424218995,13.536804110411929,-0.04910493679925115,1.2012953349924342,-0.7747966363565453
1.7280990659156066,13.286552188856945,-0.04804055373687168,1.182056298864544,-0.7494920670522064
1.718120143407679,13.040307105873037,-0.046996803481488554,1.163134967648856,-0.7252088372768846
1.708358256319535,12.798003223399729,-0.04597354973892779,1.1445210559064778,-0.7018944843442716
1.698809119094684,12.55957701955096,-0.044970614307273796,1.12620469503416,-0.6794997455699034
1.6894684873680565,12.324967003336354,-0.043987783089177175,1.1081764117716233,-0.6579783315922719
1.6803321649457508,12.094113633757626,-0.04302481140897164,1.090427108025801,-0.63728671790962
1.6713960097329097,11.86695924301354,-0.04208142871332648,1.072948041917866,-0.6173839529979344
1.6626559387318864,11.64344796356567,-0.04115734272499022,1.0557308099665899,-0.598231481537346
1.6541079322190941,11.42352565883468,-0.04025224311112697,1.038767330328545,-0.579792981418384
1.6457480371967557,11.207139857312871,-0.039365804720666496,1.022049827022009,-0.562034213328353
1.6375723702050053,10.994239689893504,-0.038497690438858784,1.005570815067194,-0.5449228818332899
1.6295771195702429,10.784775830230977,-0.03764755370173637,0.9893230864806801,-0.5284285069740745
1.6217657917294503,10.578847015635574,-0.03674604478200188,0.9719037191898292,-0.5405277959320098
1.614139561170186,10.376563945291437,-0.03588472244908674,0.9546017126590891,-0.5546777961966155
1.6066900455288433,10.17790232130221,-0.03506304556370123,0.9374137539050009,-0.570760259089075
1.5994089845318347,9.982838527516172,-0.03428039250304737,0.9203366631048809,-0.5886602737810951
1.59228825608045,9.79134960215734,-0.033536068938710924,0.9033673879316177,-0.6082660053163101
1.5853198907703223,9.603413211598902,-0.03282931496726831,0.8865029983392076,-0.6294684415960285
1.5784960849764842,9.419007625186495,-0.03215931164071402,0.8697406817789632,-0.6521611482855083
1.5718092126255232,9.238111691022656,-0.03152518693986696,0.853077738829042,-0.6762400306315324
1.5652518357676635,9.060704812627236,-0.030926021230225774,0.8365115792225785,-0.7016031012095675
1.55881671405368,8.886766926391324,-0.030360852236285492,0.8200397182622954,-0.7281502526393893
1.552496813214327,8.71627847974452,-0.02982867956707462,0.8036597736120402,-0.7557830343218167
1.5462853126334115,8.549220409957137,-0.029328468822596744,0.7873694624582729,-0.7844044322561311
1.5401756120997052,8.385574123500117,-0.028859155307940417,0.771166599037151,-0.8139186509977929
1.5341613378175731,8.225321475886034,-0.028419647379031635,0.7550490925255494,-0.8442308968090859
1.5282363477514358,8.068444751914651,-0.02800882944132165,0.7390149452971447,-0.8752471610411072
1.522394736374986,7.914926646245949,-0.02762556462010658,0.7230622515476322,-0.9068740027638086
1.5166308388924175,7.764750244222341,-0.027268697118641532,0.7071891962962606,-0.9390183296312327
1.5109392349957997,7.617899002859939,-0.026937054277717462,0.6913940547742183,-0.9715871759312528
1.505314752220111,7.474356731926175,-0.02662944834789048,0.6756751922140227,-1.004487476722523
1.4997524689553603,7.334107575017608,-0.026344677983066077,0.6600310640580298,-1.0376258369054099
1.4942477171736686,7.197135990547618,-0.026081529461619055,0.644460216608532,-1.0709082940077654
1.4887960849281405,7.063426732548315,-0.02583877763864678,0.6289612881467431,-1.1042400733898186
1.4833934186799032,6.932964831184805,-0.025615186630279407,0.6135330105533522,-1.1375253344844656
1.4780358255097656,6.805735572872422,-0.02540951022817454,0.5981742114693585,-1.1706669065890343
1.4727196752716734,6.681724479878657,-0.02522049203937128,0.5828838170426892,-1.2035660126114327
1.4674416027464685,6.560917289281228,-0.025046865343531816,0.5676608553137676,-1.2361219790467253
1.462198509856495,6.443299931141585,-0.02488735265621666,0.5525044603018837,-1.2682319303190066
1.4569875680043587,6.328858505739159,-0.0247406649831755,0.5374138768640803,-1.2997904654675967
1.4518062206027282,6.217579259695437,-0.024605500746638326,0.5223884664094773,-1.3306893149860248
1.44665218586651,6.109448560798146,-0.0244805443602024,0.5074277135647189,-1.3608169754375852
1.441523459944162,6.004452871314271,-0.024364464424063734,0.4925312339007475,-1.3900583192738791
1.4364183204714043,5.902578719555692,-0.02425591150696162,0.47769878284763356,-1.41829417707545
1.431335330638277,5.803812669432681,-0.024153515475203436,0.46293026594295106,-1.4454008892210317
1.4262733438695272,5.708141287697725,-0.02405588232241277,0.4482257505804358,-1.4712498237814946
1.4212315092288361,5.615551108544569,-0.0239615904460746,0.4335854794496305,-1.4957068572376462
1.4162092776696174,5.526028595184531,-0.023869186308390262,0.4190098858840775,-1.5186318144546969
1.4112064092692682,5.439560097973331,-0.023777179409220115,0.4044996113654607,-1.539877864235532
1.4062229816000862,5.3561318086062535,-0.02368403648775282,0.3900555254638353,-1.5592908667565775
1.4012593994089189,5.27572970983697,-0.023588174856696693,0.375678748529353,-1.576708669316957
1.3963164057993929,5.198339520105161,-0.023487954757838107,0.36137067748786006,-1.5919603471800607
1.3913950951357488,5.123946632380299,-0.023381670610198493,0.3471330151298706,-1.6048653869659695
1.3864969279165775,5.052536046443375,-0.023267541000956724,0.33296780331701253,-1.6152328112200625
1.381623747900895,4.984092293736531,-0.02314369724363977,0.3188774605577013,-1.6228602446618374
1.3767778018092207,4.9185993538141375,-0.02300817029611535,0.30486482441746465,-1.627532925529447
1.3719617619701723,4.856040561332417,-0.02285887579005979,0.29093319921797023,-1.6290226698393864
1.3671787523408825,4.796398502424871,-0.022693596869843062,0.27708640942531504,-1.6270868029360388
1.3624323784006225,4.7396548992395395,-0.02250996446596755,0.2633288590064048,-1.6214670823575943
1.3577267615064086,4.685790481379591,-0.02230543452654472,0.2496655968026401,-1.6118886501497802
1.3530665784147737,4.634784843020153,-0.022077261584263787,0.23610238757295934,-1.5980590732634594
1.3484571068272166,4.5866162846160385,-0.02182246782104098,0.2226457877043354,-1.5796675603652308
1.3439042780268655,4.541261638434872,-0.021537806468016726,0.20930322354488204,-1.5563844862524407
1.3394147379703167,4.498696077750299,-0.021219717880067903,0.19608306868913164,-1.5278614167372524
1.3349959186290257,4.458892910561868,-0.020864275846514145,0.18299471405783876,-1.4937319152444308
1.330656122015519,4.421823360394004,-0.020467120472596807,0.17004862087420555,-1.453613538265317
1.326404620304581,4.387456339384848,-0.0200233720125276,0.15725634111775533,-1.4071116044696195
1.3222517769681248,4.3557582229491345,-0.019527516906101914,0.1446304820794977,-1.3538255691545074
1.3182091962070563,4.326692641372681,-0.018973252246930025,0.1321845805533986,-1.2933591700791507
1.3142899117019702,4.300220312470749,-0.01835326684912929,0.1199328375602461,-1.225335943831189
1.310508631641434,4.276298951593766,-0.01765892420359495,0.10788964698245186,-1.1494222276968444
1.3068820664161607,4.254883311013696,-0.016879792227579633,0.09606883473251025,-1.0653602712721566
1.3034293802870265,4.235925418807984,-0.016002932811792592,0.08448251960760546,-0.9730143273920305
1.3001728317942673,4.2193751028116,-0.015011814738294323,0.07313953750081384,-0.8724319761756818
1.2971387044559446,4.205180885189268,-0.013884636102875046,0.06204348747376697,-0.7639202762658752
1.294358687982457,4.193291290256816,-0.012591711263674072,0.05119074997816457,-0.6481297102022379
1.2918719712497462,4.183656471878027,-0.011091305238332697,0.040569425057907796,-0.5261261891293073
1.2897285173033521,4.176229754190338,-0.009322541870181906,0.03016121958675453,-0.39941285394798676
1.2879945638863042,4.170968035775807,-0.0071913001969414764,0.019950384361159063,-0.2698466045227793
1.2867635524642371,4.16782843487411,-0.004532618108458545,0.009950576607372068,-0.1393959514342101
1.2861887399321603,4.166750781051409,-0.0009417869589392045,0.0003127931326558763,-0.00975919130704822
