x,y,v_x,v_y,omega
2.375,32.48,0.0,3.846153846153846,-2.4897959183673475
2.3742546204662545,31.721494340024535,-0.007453795337454905,3.738902753600773,-2.29439721167931
2.3721531236370366,30.983901269514565,-0.013561172954726638,3.637027951498915,-2.1222419905703003
2.3689413229512235,30.266186913671348,-0.01855683390340394,3.540115606933259,-1.9697951689000228
2.364822503548226,29.56739594050291,-0.02263136012656703,3.447794124751125,-1.8341509547798185
2.3599653418972615,28.886643655020443,-0.0259402563830781,3.3597287300735665,-1.7129066430446374
2.3545102182414777,28.22310909213885,-0.028610980174760516,3.2756168987423497,-1.6040643300498831
2.3485742759568273,27.576028954601213,-0.030748442671742322,3.195184476634001,-1.5059538280938167
2.3422554977602372,26.94469227054276,-0.032439339294159056,3.118182363950562,-1.417171801351797
2.335636005988355,26.32843566746911,-0.03375557842466231,3.044383666785949,-1.3365334052913027
2.3287847470733833,25.726639176984527,-0.03475701072505515,2.973581238059825,-1.263033630324707
2.321759684718334,25.138722498670983,-0.035493612825437997,2.9055855450756414,-1.1958162263032082
2.3146095991423064,24.56414166289114,-0.03600724293483877,2.8402228127227844,-1.1341485856925293
2.307375568969531,24.00238604156185,-0.03633305879291452,2.777333400570101,-1.0774013378810487
2.3000921962978897,23.452975663563883,-0.03650066792349879,2.716770379409579,-1.0250316890784832
2.2927886230431964,22.915458797757374,-0.03653506462343694,2.6583982786555227,-0.9765697560165485
2.2854893769544473,22.38940977181997,-0.03645739626405508,2.60209198071849,-0.9316073047352313
2.278215078090286,21.874426999517866,-0.03628559237755429,2.5477357423025713,-0.8897884309143058
2.2709830305555396,21.37013119271695,-0.03603488296990894,2.4952223257065818,-0.850801814861133
2.2638077195541,20.876163737567545,-0.0357182270444869,2.444452225787451,-0.8143742593112019
2.2567012300433187,20.39218521695103,-0.03534666806333071,2.3953329803777077,-0.7802652767795368
2.2496736002633804,19.917874063540822,-0.03492962973604925,2.347778553724371,-0.748262539165536
2.2427331209999117,19.452925329768284,-0.034475162898636294,2.3017087840010393,-0.7181780385558347
2.2358865894934126,18.997049562648996,-0.03399015216635909,2.2570488871918193,-0.6898448368808378
2.2291395253373465,18.549971772860072,-0.03348048939430189,2.2137290106974143,-0.6631143049287247
2.222496354431627,18.111430488699913,-0.03295121966288965,2.1716838309041866,-0.6378537694826064
2.215960566020144,17.68117688663811,-0.032406664451941763,2.1308521897138437,-0.6139445020040687
2.2095348469929506,17.25897399109904,-0.03185052581999298,2.0911767656768387,-0.5912799940986397
2.2032211969386863,16.844595936938873,-0.03128597472264923,2.0526037759248092,-0.5697644745553008
2.1970210268613224,16.437827288789258,-0.030715726050990662,2.0150827055713556,-0.5493116305129866
2.1909352440040077,16.03846241206628,-0.030142102522154057,1.978566061658426,-0.5298435016325322
2.1849643248329413,15.646304890992667,-0.029567089188512072,1.9430091490777264,-0.5112895213263681
2.179108377910793,15.261166989464758,-0.028992380032969486,1.908369866201359,-0.49358568334459296
2.17336719812021,14.88286915102259,-0.028419417872865036,1.8746085182203247,-0.47667381551265875
2.167740313473573,14.511239534558605,-0.02784942859350185,1.8416876464195355,-0.4605009453043986
2.1622270255576015,14.146113582734802,-0.02728345056621216,1.8095718718185037,-0.44501874432768945
2.156826444504129,13.787333620374746,-0.026722359968512664,1.7782277517820744,-0.43018304078945047
2.151537519246274,13.43474848036064,-0.026166892610040675,1.7476236483589853,-0.41595339066503323
2.146359063707938,13.088213154800677,-0.025617662773318645,1.7177296072406478,-0.4022926996833646
2.1412897794806525,12.74758846944152,-0.025075179499533248,1.6885172463508982,-0.3891668894013045
2.136328275462335,12.41274077948826,-0.024539860683644138,1.6599596531817207,-0.37654460161744713
2.1314730848651715,12.083541685161894,-0.024012045287987196,1.6320312900819558,-0.3643969361987355
2.126722679942647,11.759867765474961,-0.023492003937257557,1.604707906787355,-0.3526972180886936
2.1220754847370378,11.441600328840988,-0.02297994811883606,1.5779664595523915,-0.34142078985508584
2.1175298861071923,11.128625179254932,-0.02247603817961888,1.5517850363081547,-0.3305448266348698
2.11308424326095,10.820832396891369,-0.021980390282804952,1.5261427873274613,-0.32004817075985487
2.1087368959862047,10.518116132065735,-0.021493082464649416,1.5010198609288627,-0.3099111837094414
2.1044861717486087,10.22037441159322,-0.02101415991131022,1.476397343796302,-0.3001156133470913
2.100334852523587,9.927509232601533,-0.020499032338906775,1.4522544461205569,-0.28941267992855146
2.0962852501577407,9.639426097506789,-0.019996991319553355,1.4285769048268926,-0.2791933415203341
2.0923347734111055,9.356033577886969,-0.019507776146801784,1.4053482913713056,-0.2694300744164366
2.088480884345639,9.077243457050098,-0.0190311145078622,1.3825529169973936,-0.26009721803583985
2.084721100353239,8.802970586255853,-0.018566725416135264,1.360175790945064,-0.2511708287789791
2.0810529956393657,8.53313274901548,-0.01811432172259754,1.3382025814586713,-0.24262854687483162
2.0774742022409036,8.26765053293186,-0.017673612262023856,1.3166195793775244,-0.2344494749309814
2.073982410646449,8.00644720858303,-0.017244303682524463,1.2954136641107674,-0.226614067039537
2.0705753700781555,7.749448614990371,-0.016826102000411017,1.2745722718158274,-0.21910402741558277
2.067250888486431,7.496583051247274,-0.016418713916832483,1.254083365615152,-0.21190221765408862
2.0640068323019665,7.247781173915758,-0.016021847927811916,1.233935407699999,-0.20499257178773578
2.0608411259836696,7.002975899827483,-0.015635215255158673,1.2141173331827542,-0.1983600184135358
2.0577517513959402,6.762102313952131,-0.01525853062213535,1.1946185255707615,-0.19199040923181068
2.054736747044262,6.525097582020543,-0.014891512894645794,1.1754287937451144,-0.1858704534082608
2.051794207194196,6.2919008676122985,-0.014533885606012584,1.156538350337331,-0.179987657229513
2.048922280895488,6.062453253438019,-0.014185377381071887,1.1379377914054751,-0.17433026857562064
2.0461191709300524,5.836697666565559,-0.013845722273281557,1.1196180773191347,-0.16888722578026394
2.043383132700047,5.614578807356665,-0.01351466002677247,1.101570514769817,-0.16364811049155875
2.040712473069996,5.3960430818967,-0.013191936273737458,1.0837867398298497,-0.15860310418402812
2.038105549175001,5.181038537714834,-0.0128773026762157,1.0662587019888259,-0.15374294800593918
2.0355607672053626,4.969514802605744,-0.012570517020166394,1.0489786491020705,-0.1490589056763246
2.033076581176475,4.76142302637648,-0.012271343268711193,1.0319391131905802,-0.14454272917298908
2.0306514916915495,4.556715825353777,-0.011979551580540192,1.0151328970364402,-0.14018662697700285
2.028284044703625,4.355347229497944,-0.0116949182987045,0.9985530615218895,-0.13598323466091483
2.025975179686039,4.157438290705535,-0.01139373187715975,0.9805363264022146,-0.16470638290383396
2.023723394161051,3.9631216745421334,-0.011124123372720542,0.9626298352318194,-0.19502196506619388
2.0215224205448132,3.772375627507625,-0.010885612789655748,0.9448306351132738,-0.22682615304288556
2.0193660942111964,3.585178975535687,-0.010677650546510558,0.9271358846061144,-0.26001741600156414
2.0172483667513292,3.4015111021087563,-0.010499624052161306,0.9095428496632019,-0.2944962998726931
2.01516331797343,3.221351927149591,-0.010350863726832665,0.8920488999284448,-0.330165211342921
2.013105166750119,3.0446818866181573,-0.010230648506275648,0.8746515053858924,-0.36692820548168364
2.0110682808131113,2.8714819127443185,-0.010138210863803164,0.8573482333525033,-0.40469077613298876
2.0090471855885745,2.701733414828144,-0.010072741381563766,0.8401367458092397,-0.4433596482000082
2.0070365721604904,2.5354182605404674,-0.010033392899276652,0.8230147970675329,-0.4828425709391518
2.005031304444,2.3725187576566498,-0.010019284265625344,0.8059802317706573,-0.5230481113624171
2.003026425645979,2.213017636156369,-0.010029503714587761,0.7890309832321596,-0.5638854468216294
2.0010171640859062,2.056898030621525,-0.010063111886140211,0.7721650721162652,-0.6052641558152196
1.9989989384464935,1.9041434628630824,-0.010119144507985936,0.755380605468155,-0.6470940060168919
1.9969673625204751,1.7547378247057424,-0.01019661475219776,0.7386757761052318,-0.6892847384752221
1.994918249517465,1.6086653608568184,-0.010294515277901036,0.7220488623840158,-0.7317458468731466
1.9928476159928423,1.4659106517822984,-0.010411819968327591,0.7054982283611969,-0.7743863506655528
1.9907516854592384,1.3264585965090099,-0.010547485367712134,0.6890223243716902,-0.8171145608307504
1.9886268917404126,1.1902943952667044,-0.010700451820545484,0.672619688051366,-0.8598378368763471
1.9864698821270974,1.05740353187781,-0.01086964431260703,0.6562889458375656,-0.9024623336306911
1.9842775203948435,0.9277717557953871,-0.011053973009931505,0.6400288149866578,-0.9448927362261482
1.9820468897450125,0.8013850636812343,-0.011252333488377649,0.6238381061548753,-0.9870319815385099
1.979775295731904,0.6782296804060834,-0.011463606642708969,0.6077157265966402,-1.0287809641860997
1.9774602692416317,0.5582920393420494,-0.011686658260013997,0.5916606840437025,-1.0700382250108946
1.9750995695918478,0.4415587618037904,-0.011920338237822755,0.5756720913388872,-1.110699619760393
1.9726911878258309,0.3280166354788747,-0.012163479422347257,0.5597491719102812,-1.1506579654612636
1.9702333502799154,0.2176525916692924,-0.012414896036807144,0.5438912661855757,-1.1898026617223858
1.967724522509864,0.11045368114450582,-0.012673381663706405,0.5280978390622943,-1.2280192839244612
1.9651634136696834,0.006407048381461777,-0.012937706738100494,0.5123684885681419,-1.2651891449453048
1.9625489814457517,-0.09450009606206322,-0.013206615501216781,0.49670295586708957,-1.3011888217346197
1.959880437660117,-0.19228050532792196,-0.01347882235512944,0.48110113679150446,-1.3358896426916083
1.9571572546696656,-0.28694692851798465,-0.013753007549385264,0.4655630951091176,-1.3691571314178284
1.9543791727027924,-0.37851214580553716,-0.01402781211934636,0.45008907776641865,-1.400850402024829
1.9515462082925235,-0.46698900682094546,-0.014301831983343194,0.43467953238768237,-1.4308215007856577
1.9486586639850632,-0.5523904727948903,-0.0145736110912593,0.41933512735176776,-1.4589146885542994
1.945717139525879,-0.6347296630118109,-0.014841633500583363,0.40405677481747293,-1.4849656580731168
1.942722544752133,-0.7140199062058343,-0.015104314236875353,0.38884565712274877,-1.5088006800996212
1.9396761144510952,-0.7902747976224305,-0.015359988773501856,0.37370325704324303,-1.5302356722917956
1.936579425479771,-0.8635082625728074,-0.015606900939742492,0.3586313924605246,-1.5490751851169242
1.9334344164821913,-0.9337346274246414,-0.0158431890360531,0.34363225605780784,-1.565111299871928
1.9302434105886745,-1.000968699103126,-0.01606686989911427,0.32870846072702103,-1.5781224354885557
1.927009141537221,-1.0652258543186761,-0.01627582061542226,0.31386309142851543,-1.5878720635350505
1.9237347837229029,-1.126522139889687,-0.016467757527759395,0.29909976428157453,-1.5941073352927617
1.9204239867591757,-1.1848743856838908,-0.01664021210951155,0.28442269366045786,-1.5965576318303507
1.917080915229175,-1.2403003318494612,-0.016790503190494462,0.269836767995278,-1.594933058872483
1.913710294420784,-1.2928187721269069,-0.016915704893416327,0.25534763477917954,-1.5889229248152419
1.9103174629850592,-1.3424497150932027,-0.017012609463830996,0.24096179488380845,-1.5781942652145013
1.9069084336469035,-1.389214565137614,-0.01707768391772612,0.22668670556033718,-1.5623905145151757
1.9034899633512945,-1.4331363247198752,-0.01710701903836493,0.21253089026224264,-1.5411304816787716
1.9000696345833559,-1.47423981888371,-0.017096268641020682,0.1985040513760906,-1.514007869500783
1.8966559501148668,-1.5125519418859312,-0.01704057604386983,0.18461717864610397,-1.480591700620151
1.8932584442019489,-1.5481019238379545,-0.01693448308531051,0.17088264087413005,-1.4404281949365059
1.8898878144548847,-1.5809216119688472,-0.01677181438533022,0.15731424043482878,-1.3930449090783588
1.8865560805030535,-1.6110457558131372,-0.01654552513298269,0.14392719800809536,-1.3379583327022118
1.8832767786640932,-1.6385122773332057,-0.01624749325661968,0.13073801719261754,-1.2746866789509756
1.8800652069068073,-1.6633624944550576,-0.015868224316239386,0.11776415402592307,-1.2027703425193028
1.8769387428355624,-1.6856412483788645,-0.015396416396209945,0.10502338521213202,-1.1218034238314505
1.873917271489196,-1.7053968605631766,-0.014818297067451532,0.0925327366309735,-1.0314806982442337
1.8710237831616126,-1.722680816195755,-0.014116586208385257,0.0803068196947974,-0.9316649801323509
1.8682852402710972,-1.737547045882124,-0.013268842696768366,0.06835547716890648,-0.8224787979953286
1.865733876724496,-1.7500506807246978,-0.012244792769244027,0.05668087125685131,-0.7044191185106197
1.8634092032431722,-1.760246243566229,-0.011001942043994633,0.04527475715844515,-0.5784802593422054
1.861361201456758,-1.768185517871693,-0.009478075820148544,0.03411798589620694,-0.4462437703800516
1.8596556971998444,-1.7739159954691317,-0.007576966748987065,0.02318679007818613,-0.3098578555879611
1.8583846485660485,-1.777482339494071,-0.005133519588971118,0.01247665017120904,-0.17180493514487777
1.8576935478410062,-1.7789391510353525,-0.0017774876614520094,0.002091465241577453,-0.03439523672084016
