x,y,v_x,v_y,omega
2.375,32.48,0.0,3.282051282051282,-4.938775510204081
2.3737759598996964,31.831705294598635,-0.012240401003035584,3.2008957719623394,-4.603692705226431
2.3702950545718617,31.199287371710064,-0.022568652275310686,3.1232834569233883,-4.30276762101343
2.3649110142290817,30.582062385740503,-0.03127175115249199,3.0489664027721886,-4.03149988344751
2.357924841954864,29.979393657936104,-0.0385899715896829,2.977720875271808,-3.7860895424528413
2.349593320733643,29.39068715322072,-0.04472524062252832,2.909344171882021,-3.5633129748512795
2.3401360105736924,28.815387537134423,-0.049847860976978485,2.8436519889809686,-3.3604233513932718
2.3297410305918675,28.252974716906408,-0.0541019388412673,2.7804762132991914,-3.1750702956812975
2.3185698576822236,27.70296079024545,-0.05760979025517549,2.719663053310364,-3.0052346513143897
2.306761325020894,27.16488734031681,-0.060475536358117074,2.661071445976038,-2.8491752251470372
2.2944349663356656,26.638323026846013,-0.06278805049416725,2.604571688731937,-2.7053850846877783
2.2816938228362464,26.12286143223153,-0.06462338450002524,2.5500442574128934,-2.572555522725712
2.268626806954468,25.618119128593378,-0.06604677431776132,2.497378778968617,-2.4495462089700277
2.2553106991041205,25.123733937292343,-0.06711430418571057,2.4464731340417236,-2.335360360103229
2.2418118394366617,24.639363356960985,-0.06787429248888024,2.3972326692718595,-2.2291240001807022
2.228187565213398,24.164683139741857,-0.06836844974375654,2.349569502919429,-2.1300685702438473
2.21448743530867,23.699385998416645,-0.06863284930352122,2.303401910332676,-2.0375162922174543
2.20075427602155,23.243180429572888,-0.06869874356767913,2.258653778104917,-1.9508678071865173
2.187025076435623,22.795789639999775,-0.06859325229159374,2.215254117626233,-1.8695916991440014
2.1733317567406334,22.35695056521402,-0.06833994465829994,2.173136630231306,-1.7932155876633011
2.159701828992378,21.92641297045474,-0.06795933282425337,2.132239317361485,-1.7213185307754955
2.1461589665626604,21.50393862570315,-0.06746929147292154,2.09250413015443,-1.6535245257562559
2.1327234958810104,21.08930054731824,-0.06688541534358003,2.053876653694661,-1.5894969329624287
2.1194128218844805,20.682282299764957,-0.06622132462172003,2.0163058218381575,-1.528933678170862
2.106241796783908,20.282677351672017,-0.06548892638400167,1.9797436590912267,-1.4715631135150615
2.0932230402547374,19.890288481112943,-0.0646986389077078,1.9441450464995191,-1.4171404372254246
2.0803672179118213,19.504927225572573,-0.06385958452145198,1.9094675089041697,-1.3654445888497773
2.067683283885438,19.126413372555962,-0.06297975574238221,1.875671021261948,-1.3162755501684409
2.0551786924434947,18.7545744872282,-0.062066158677050724,1.84271783201567,-1.2694519931819506
2.042859582872995,18.38924547385178,-0.06112493702794211,1.8105723017485456,-1.2248092257857703
2.0307309412181125,18.03026816812007,-0.06016147952088469,1.779200755568543,-1.1821973934115866
2.018796741952973,17.677490957778026,-0.05918051313051471,1.7485713478519036,-1.1414799012953314
2.007060072228349,17.330768429179514,-0.05818618411571927,1.7186539381332349,-1.1025320273587491
1.99552324095961,16.98996103765949,-0.057182128571674505,1.689419977066984,-1.0652397001506253
1.9841878747075168,16.654934799802326,-0.056171533949255885,1.6608424015046643,-1.0294984200371566
1.973055002034821,16.3255610058682,-0.05515719277770276,1.6328955378365968,-0.9952123049815701
1.962125127792501,16.001715950800705,-0.05414154964549854,1.6055550128383278,-0.962293244911638
1.951398298593774,15.683280682382662,-0.05312674234177049,1.5787976713421137,-0.9306601509226068
1.9408741605664546,15.370140765236005,-0.05211463793142348,1.5526015001244582,-0.9002382874699737
1.930552010330529,15.062186059477263,-0.051106864427832625,1.526945557462973,-0.8709586773272994
1.9204308400243422,14.759310512943877,-0.05010483863403408,1.5018099078708862,-0.8427575704649002
1.9105093770965063,14.461411966000156,-0.04910979064432487,1.4771755615663065,-0.8155759691840215
1.9007963611003178,14.168393718267804,-0.04802036931756142,1.4530069157572139,-0.7864480769240374
1.891299187842909,13.88016249660268,-0.04695136325652557,1.4293053008940402,-0.7586401487702492
1.8820137547472404,13.59662654998234,-0.045902967700159766,1.4060541653093634,-0.7320768304010362
1.8729359296084418,13.317697362706816,-0.04487528368782834,1.3832377074458742,-0.706687884454444
1.864061568144817,13.043289508652695,-0.043868330948418986,1.360840833095334,-0.6824077878506148
1.8553865291282619,12.773320513789315,-0.04288205921713045,1.3388491155384696,-0.6591753650276764
1.8469066873892896,12.507710726399768,-0.04191635817259274,1.317248758356988,-0.6369334535188393
1.838617944955785,12.246383194493124,-0.04097106616245427,1.2960265607094599,-0.6156285986897488
1.8305162405531061,11.989263549934048,-0.040045977864332775,1.2751698848812905,-0.5952107747996982
1.8225975576656128,11.736279898852356,-0.03914085101060259,1.2546666259356445,-0.5756331298541919
1.8148579313356037,11.487362717928072,-0.0382554122894886,1.2345051833071863,-0.5568517519847251
1.8072934538545526,11.24244475617795,-0.03738936252102063,1.2146744341940445,-0.5388254553290163
1.799900279483022,11.00146094189698,-0.03654238119428669,1.1951637086156486,-0.5215155835951608
1.792674628319407,10.764348294433898,-0.035714130441863286,1.1759627660151655,-0.5048858296796264
1.785612789423412,10.531045840502852,-0.034904258518087074,1.1570617732953032,-0.48890206987458706
1.778711123287625,10.301494534754788,-0.03411240283978374,1.138451284185355,-0.4735322113473296
1.7719660637395431,10.075637184351688,-0.033338192641033056,1.1201222198456273,-0.4587460517055514
1.765374119346701,9.853418377304834,-0.0325812512873898,1.1020658506229213,-0.44451514957922755
1.7589318743890034,9.634784414354783,-0.03184119828958452,1.0842737788775696,-0.43081270525402204
1.7526359894548453,9.419683244186146,-0.031117651051996303,1.066737922808784,-0.4176134504844162
1.746483201710942,9.208064401784192,-0.030410226387037036,1.0494505012107416,-0.4048935466981066
1.7404703248899445,8.999878949753413,-0.02971854182293827,1.0324040190970394,-0.39263049087790014
1.7345942490347281,8.79507942243012,-0.0290422167292246,1.0155912541358945,-0.38080302847429365
1.7288519400336722,8.593619772632252,-0.028380873281334994,0.9990052438428,-0.3693910727620287
1.7232459962517546,8.395626891524334,-0.02767856453784088,0.9809235672363765,-0.3926384118576518
1.7177764197609235,8.201239010843892,-0.027017200370470208,0.9629552395680512,-0.417628724429132
1.7124351052425444,8.010433768617606,-0.02639594481332,0.9450971826948286,-0.44425047484564417
1.7072141204345792,7.823189406449714,-0.025813903266332636,0.9273464389840747,-0.4723947715676847
1.7021057172417529,7.63948474587421,-0.02527012866193,0.9097001667709732,-0.5019551235574651
1.6971023416665765,7.459299165575061,-0.02476362708983356,0.8921556362205187,-0.5328272026810104
1.6921966426657673,7.2826125793948755,-0.024293362918256813,0.874710225581338,-0.5649086111204489
1.6873814800293245,7.109405415054617,-0.02385826344617229,0.8573614178212307,-0.5980986528274073
1.682649931372901,6.939658593508803,-0.023457223118063582,0.8401067976369231,-0.6322981080537828
1.6779952983281499,6.773353508861792,-0.023089107329446797,0.8229440488331767,-0.6674090099943478
1.6734111120103594,6.610472008771563,-0.022752755848460107,0.8058709520691038,-0.7033344225664575
1.6688911378379183,6.450996375267415,-0.02244698587594923,0.7888853829723681,-0.7399782183353305
1.6644293797739538,6.294909305907687,-0.022170594763696056,0.7719853106249146,-0.7772448555685899
1.660020084056812,6.142193895202492,-0.021922362407721947,0.75516879642702,-0.8150391533705705
1.6556577424829477,5.992833616224807,-0.021701053330920993,0.738433993349847,-0.8532660638047843
1.651337095303194,5.846812302330786,-0.02150541846661569,0.7217791455903515,-0.8918304398612732
1.6470531337913374,5.704114128907111,-0.021334196651950445,0.7052025886464086,-0.930636798063655
1.6428011025424105,5.564723595059025,-0.02118611583731854,0.6887027498344562,-0.9695890744376634
1.6385765015571563,5.428625505147892,-0.021059894015224685,0.6722781492768692,-1.0085903724779857
1.6343750881687251,5.295804950081028,-0.020954239869085563,0.6559274013917805,-1.0475427016521999
1.6301928788678737,5.166247288249426,-0.020867853139428384,0.6396492169242431,-1.086346704868509
1.6260261510837584,5.039938126000543,-0.020799424701723974,0.6234424055646072,-1.1249013732065918
1.6218714449789218,4.916863297523292,-0.020747636346642624,0.6073058792078959,-1.163103746067037
1.6177255653192775,4.797008844010808,-0.020711160249800388,0.5912386559169673,-1.2008485947332863
1.6135855834828958,4.68036099195286,-0.02068865811401732,0.5752398646625113,-1.2380280871596692
1.6094488396752262,4.566906130394141,-0.020678779962677588,0.5593087509246697,-1.2745314315990344
1.6053129454231687,4.456630786976223,-0.0206801625578972,0.543444683254502,-1.310244496463075
1.6011757864261997,4.349521602559882,-0.02069142741179218,0.5276471609089182,-1.3450494035677352
1.5970355258497093,4.245565304199957,-0.020711178353111714,0.5119158226903519,-1.3788240916559982
1.5928906081539225,4.144748676216654,-0.020737998604757765,0.4962504571426774,-1.4114418468132852
1.5887397635614326,4.047058529074583,-0.020770447320140283,0.48065101427802254,-1.4427707961011391
1.5845820132776405,3.9524816657432247,-0.020807055517781864,0.46511761903556625,-1.4726733604405533
1.5804166755914693,3.861004845169319,-0.020846321343929563,0.44965058670348546,-1.5010056624895496
1.5762433729988796,3.7726147424420446,-0.020886704581965374,0.43425044056925116,-1.5276168849995089
1.5720620405091932,3.687297905174951,-0.020926620314898964,0.41891793210169675,-1.5523485749301622
1.5678729353144147,3.6050407055637095,-0.02096443163288638,0.40365406401073667,-1.5750338884969903
1.5636766480250088,3.5258292875049335,-0.020998441261172587,0.3884601165770214,-1.5954967723803306
1.559474115702431,3.4496495080778935,-0.02102688196460709,0.37333767769336457,-1.6135510766352836
1.5552666369497452,3.376486872597482,-0.02104790556224943,0.35828867711076645,-1.6289995955403773
1.5510558893576603,3.3063264623432858,-0.021059570358600566,0.34331542543119775,-1.641633033906731
1.546843949645274,3.2391528539569947,-0.021059826765262316,0.3284206584317003,-1.6512288985224237
1.5426333168841238,3.174950029380714,-0.021046500846238242,0.31360758733110605,-1.6575503178412505
1.538426939252657,3.113701275086825,-0.021017275468430383,0.2988799556077968,-1.6603447983396296
1.5342282448386992,3.055389069233808,-0.020969668671147024,0.28424210292237967,-1.6593429340296715
1.5300411770939157,2.9999949552857146,-0.02090100877668928,0.2696990365585539,-1.6542570976949111
1.5258702356526839,2.947499400578291,-0.020808405635628836,0.2552565105156962,-1.6447801603482493
1.5217205233676538,2.897881638338081,-0.020688717214673247,0.24092111188641538,-1.630584311877613
1.5175978006003357,2.851119491818661,-0.02053851045850612,0.22670035330779376,-1.6113200947369446
1.5135085480610244,2.8071891795978985,-0.020354014934605986,0.21260276889982208,-1.5866158194981907
1.50946003985648,2.766065101815812,-0.020131067110840662,0.19863800892105382,-1.5560776142174457
1.5054604289385096,2.7277196084263515,-0.01986504206886284,0.18481692497354646,-1.519290480408927
1.501518847954457,2.6921227526891833,-0.01955076777166363,0.1711516323981217,-1.4758209029639164
1.4976455297507436,2.659242036576444,-0.01918241426547116,0.15765552872928365,-1.4252218109230763
1.4938519537525101,2.6290421601293907,-0.018753345716861946,0.14434323574124108,-1.367041036879837
1.4901510275971916,2.6014847948861153,-0.01825591583632538,0.13123041669152027,-1.3008349020044894
1.486557318494585,2.5765284132810784,-0.017681175189739426,0.11833339935885354,-1.2261891751199037
1.4830873570513852,2.5541282222563204,-0.017018439242258748,0.10566851088872697,-1.1427503820350697
1.4797600497061218,2.534236270237624,-0.016254634210375655,0.09325100929824945,-1.0502711049358924
1.4765972575797757,2.51680181945445,-0.015373287053087754,0.08109349853350488,-0.9486730301598544
1.4736246343450579,2.501772091075111,-0.014352945294089552,0.06920378525988259,-0.8381299729138504
1.4708728717831407,2.489093475705296,-0.013164680325081585,0.05758236843827747,-0.7191678041811036
1.4683795955143366,2.478713208446461,-0.011768082362959512,0.046220304150063014,-0.5927659545848123
1.4661923313244685,2.470581249904882,-0.010104559535721506,0.03509928126573631,-0.46042355790149814
1.464373396441066,2.4646515451554123,-0.008084789298303613,0.024197766228946642,-0.3241264689484564
1.46300903956346,2.460880557662783,-0.005558779477754787,0.01351210869734632,-0.18613738995757148
1.4622326615444416,2.4592163305268535,-0.0022050007124290627,0.0031301626619429906,-0.04856472870314077
