x,y,v_x,v_y,omega
2.375,32.48,0.0,3.8974358974358974,-6.163265306122449
2.373162343754869,31.711563254915095,-0.01837656245131387,3.786931553413127,-5.673001691549269
2.3679817613255287,30.96465385364432,-0.033429261842084085,3.6821624592945854,-5.241886521945645
2.360064900004311,30.23817191908816,-0.045739351370095,3.582656886267027,-4.860786930888207
2.3499131628843957,29.53110648613172,-0.05577801982905709,3.487997443297403,-4.522226973774556
2.3379424323283615,28.84252547478204,-0.0639292857312852,3.3978126701993707,-4.220046669370643
2.3244987378473985,28.17156717729005,-0.07050765907834675,3.3117703047205387,-3.949139189418445
2.3098707836835604,27.517432965127366,-0.07577188256003198,3.2295718169063004,-3.7052464616529868
2.29430002504785,26.87938099159664,-0.07993570379707421,3.1509479184009694,-3.484798901796647
2.2779888168545073,26.256720716457778,-0.0831763781363511,3.0756548329876217,-3.2847888039485165
2.2611070368243045,25.64880811619512,-0.0856414221656768,3.0034711696389698,-3.10266962734989
2.2437974937356944,25.055041471391583,-0.08745400872042271,2.9341952783964307,-2.936275366663121
2.226180362900882,24.474857643796533,-0.08871729962770154,2.8676429975540563,-2.783755612277316
2.2083568386765764,23.90772877191803,-0.08951794261535427,2.803645721230987,-2.6435229518537025
2.190412153741476,23.353159326624237,-0.08992890673565133,2.7420487317069298,-2.514210140753119
2.1724180839213574,22.810683478214358,-0.09001179146553195,2.6827097523918604,-2.3946350511802166
2.1544350332827906,22.2798627343698,-0.08981871492013868,2.6254976860537327,-2.2837718500002624
2.136513775400303,21.76028381479739,-0.08939386390473468,2.5702915096703305,-2.180727190421564
2.1186969119037453,21.251556733578056,-0.08877477106084372,2.5169793025230134,-2.0847204598784472
2.1010200977134206,20.753313064497437,-0.08799337084240312,2.465457388283186,-1.995067324982746
2.083513073075789,20.265204368156446,-0.087076875533912,2.4156295751267343,-1.911165968636442
2.0662005350937025,19.78690076258924,-0.08604850428695505,2.367406480545281,-1.8324855348962767
2.0491028754976037,19.318089621569452,-0.08492809167403237,2.3207049296526114,-1.7585563918426002
2.0322368066162255,18.858474386852198,-0.08373259713974983,2.275447417519937,-1.6889618974542682
2.015615893635655,18.407773482350414,-0.08247653266595388,2.231561627497916,-1.6233314128078058
1.9992510080962669,17.965719319734603,-0.08117232272792839,2.1889799986601526,-1.5613343542093314
1.9831507150209047,17.532057386220472,-0.07983060802569439,2.147639336481194,-1.5026751137388434
1.9673216039792636,17.10654540640435,-0.07846050239071534,2.107480461680002,-1.4470887081443784
1.9517685726814287,16.688952570951614,-0.07706981058763501,2.0684478928473884,-1.3943370406199327
1.936495070285639,16.279058825761215,-0.07566521337026141,2.0304895590565915,-1.3442056799422444
1.921503306444007,15.876654215940665,-0.0742524250460595,1.9935565391489132,-1.2965010776699133
1.9067944311491007,15.481538279545155,-0.07283632790300135,1.957602824806171,-1.2510481573633943
1.892368689647145,15.093519486576447,-0.07142108711655672,1.922585104880904,-1.2076882206490365
1.878225556020384,14.712414719211989,-0.07001024915105424,1.8884625687636682,-1.166277123885908
1.8643638484879497,14.338048789652373,-0.0686068261732878,1.855196726832476,-1.126683686567304
1.8507818290119324,13.970253992343213,-0.06721336858688488,1.8227512462591318,-1.088788298692118
1.8374772894075027,13.608869687652664,-0.0658320274574146,1.7910918006463663,-1.0524816994088964
1.824447625830011,13.253741914373741,-0.0644646083174992,1.7601859321428543,-1.017663903455697
1.8116899032374785,12.904723028676038,-0.06311261760782656,1.7300029248341897,-0.9842432554436534
1.7992009111951486,12.561671367358631,-0.0617773028154735,1.700513688339894,-0.9521355949842961
1.7869772121927538,12.22445093345842,-0.06045968720847412,1.6716906506621954,-0.9212635181399684
1.775015183478955,11.89293110244881,-0.059160599929515056,1.6435076594339195,-0.8915557227643435
1.7633110532762577,11.566986347425193,-0.05788070209745766,1.6159398908022595,-0.8629464270624805
1.7518609321195773,11.246495981818558,-0.056620509469347796,1.5889637652640922,-0.8353748521914495
1.74066083995918,10.931343918308325,-0.055380412134623705,1.5625568698382433,-0.8087847609879947
1.7297067295812316,10.621418442722316,-0.054160691644858205,1.5366978860218665,-0.7831240459858388
1.7189945068242953,10.31661200181684,-0.05296153592450538,1.511366523032904,-0.7583443608024751
1.7085200480059397,10.016821003924619,-0.05178305225905189,1.486543455889308,-0.7344007897588871
1.6982905502845025,9.721947284533119,-0.05051192495531918,1.4621937380256842,-0.7080925065299393
1.6883120461013092,9.431896170541766,-0.04927311687661245,1.4383174018878453,-0.6829796617373546
1.6785781355034,9.146574669084924,-0.04806598910248178,1.414897612680565,-0.6589938335111875
1.6690825492621615,8.865893077672865,-0.04688987330990381,1.3919183014400207,-0.6360712592933667
1.6598191540215632,8.589764835403894,-0.04574407909607624,1.3693641212496792,-0.6141524681069236
1.650781956086551,8.318106382635658,-0.044627900254046116,1.3472204064326938,-0.5931819457204802
1.6419651040471628,8.050837028543803,-0.043540620139837456,1.3254731344858752,-0.5731078294261057
1.6333628904080557,7.7878788260410765,-0.042481516251232934,1.3041088905413765,-0.5538816295091903
1.6249697523706912,7.52915645357082,-0.04144986412241064,1.2831148341611984,-0.53545797480636
1.616780271895963,7.27459710332603,-0.04044494062487161,1.2624786682866944,-0.5177943800272446
1.6087891751581556,7.024130375479295,-0.039466026753203556,1.2421886101806607,-0.5008510327629275
1.6009913314864406,6.777688178039877,-0.03851240996394494,1.2222333642135015,-0.4845905983223011
1.5933817518773548,6.535204631982772,-0.037583386126913955,1.2026020963575346,-0.46897804073090926
1.5859555871505977,6.296615981320532,-0.03667826114065621,1.1832844102648867,-0.45398045839828194
1.5787081258108344,6.061860507812568,-0.03579635225697811,1.164270324814739,-0.4395669331119494
1.5716347916697637,5.830878450028589,-0.034936989153728,1.1455502530250448,-0.42570839115159814
1.5647311412753964,5.60361192650285,-0.03409951478994491,1.1271149822323419,-0.4123774754372308
1.557992861189091,5.380004862734516,-0.03328328607310994,1.1089556554510107,-0.39954842773248345
1.551415765145338,5.160002921806377,-0.03248767436442023,1.0910637538303625,-0.3871969800199878
1.5449957911244274,4.943553438409907,-0.03171206584468377,1.0734310801343565,-0.3753002542511796
1.5387289983639052,4.730605356079014,-0.030955861760537957,1.0560497431745905,-0.363836669749436
1.5326115643310345,4.5211091674483015,-0.03021847856817127,1.0389121431325434,-0.35278585761390413
1.5266397816752648,4.3150168573638545,-0.02949934798952508,1.0220109577119332,-0.3421285815327633
1.5208100551769093,4.11228184868601,-0.0287979169940303,1.0053391290665104,-0.3318466644697478
1.5151188987057806,3.9128589506340887,-0.028113647717254806,0.9888898514526954,-0.32192292073723705
1.5095689418803915,3.716881121098943,-0.02738592053663808,0.970888443898776,-0.34768489924235757
1.5041601552025745,3.5244924988933235,-0.026701946241531594,0.9529977781574268,-0.3750931228001046
1.4988838922538261,3.3356712334163916,-0.026060683245950823,0.9352148766118812,-0.4040388386388472
1.4937317194825908,3.1503960579858443,-0.02546104446640554,0.9175368776935805,-0.43441576175569807
1.4886954247716604,2.9686462670519234,-0.024901902642895636,0.8999610316456217,-0.46611983652161887
1.4837670249902057,2.790401694219568,-0.024382095171651623,0.8824846966779364,-0.49904900366550214
1.4789387726246512,2.615642691001458,-0.023900428483891904,0.865105335503155,-0.5331029716644108
1.4742031615761002,2.444350106226672,-0.023455682001618683,0.8478205122446916,-0.5681829915754805
1.4695529322060992,2.2765052660310836,-0.023046611698392158,0.8306278897111881,-0.6041916343461413
1.464981075707252,2.112089954356552,-0.022671953290082838,0.8135252270341242,-0.641032569633138
1.4604808378704655,1.9510863938863245,-0.022330425077779974,0.79651037766815,-0.6786103451470841
1.456045722316457,1.7934772273438497,-0.02202073046230544,0.7795812877565839,-0.7168301655176601
1.451669493255514,1.639245499081433,-0.021741560147122488,0.7627359948675688,-0.755597669644656
1.4473461778364207,1.4883746368837123,-0.02149159404381271,0.7459726271096452,-0.7948187054613508
1.4430700681428696,1.340848433908846,-0.021269502891696344,0.7292894026390245,-0.8343991009886484
1.4388357228936437,1.1966510306874731,-0.021073949600564617,0.7126846295746978,-0.8742444305002346
1.4346379689013022,1.055766897095829,-0.02090359032284945,0.6961567063417438,-0.9142597745499917
1.4304719023431327,0.918180814214864,-0.02075707525884628,0.6797041224678937,-0.9543494725321159
1.4263328898976684,0.7838778559817108,-0.020633049195797552,0.6633254598636421,-0.9944168663507964
1.4222165698002183,0.6528433705331409,-0.02053015177870315,0.6470193946220656,-1.0343640336688449
1.418118852871587,0.5250629611328215,-0.020447017507611593,0.6307846993811375,-1.0740915090820977
1.4140359235755438,0.4005224665648228,-0.020382275452820352,0.6146202462988288,-1.1134979914274865
1.4099642411626787,0.27920794086495704,-0.020334548675829296,0.5985250106998196,-1.152480035276088
1.4059005409610963,0.1611056322487343,-0.02030245333999589,0.5824980754623743,-1.1909317244869306
1.401841835878039,0.046201961079987086,-0.020284597490577278,0.5665386362250642,-1.2287443255016988
1.3977854181810665,-0.06551650329309666,-0.020279579479147398,0.5506460075057593,-1.265805917843792
1.3937288616329342,-0.17406306702766727,-0.020285986002173614,0.5348196298399369,-1.3020009990469845
1.3896700240609425,-0.2794509378178702,-0.020302389717743723,0.519059078062126,-1.3372100609793955
1.3856070504493725,-0.38169325271144317,-0.02032734639795509,0.5033640708735739,-1.37130913424899
1.3815383766528568,-0.48080310798493286,-0.02035939156720404,0.48773448186131074,-1.4041692970804418
1.3774627338392946,-0.5767935913869735,-0.02039703656841823,0.4721703521590917,-1.4356561447455576
1.3733791537834519,-0.6696778170998456,-0.02043876399000907,0.456671904969597,-1.465629215320042
1.3692869751468701,-0.7594689638168219,-0.02048302237580905,0.4412395622001372,-1.4939413672432043
1.3651858508964605,-0.8461803163869632,-0.02052822012828641,0.4258739635012728,-1.5204381038973949
1.3610757570334684,-0.9298253115410304,-0.020572718501634606,0.4105759880393972,-1.5449568402354132
1.3569570028267466,-1.010417588283012,-0.020614823565583064,0.39534677938041934,-1.5673261064187118
1.3528302427699348,-1.087971043612228,-0.020652777002535126,0.38018777391175884,-1.5873646835634132
1.3486964905117487,-1.162499894331681,-0.020684745579325176,0.36510073328279913,-1.6048806671369298
1.3445571350428474,-1.234018745799709,-0.02070880910968852,0.35008778139749447,-1.619670454468742
1.3404139594625493,-1.302542668593759,-0.020722946693291264,0.3351514465429866,-1.6315176544725987
1.3362691626952046,-1.3680872841758642,-0.02072502098015616,0.3202947092780997,-1.6401919203702209
1.3321253845808945,-1.430668860776116,-0.020712760162944783,0.3055210567243901,-1.64544771046223
1.3279857348306203,-1.490304420836793,-0.020683737339796896,0.29083454388235075,-1.6470229885438583
1.3238538264155446,-1.5470118614758803,-0.020635346810959198,0.2762398625085459,-1.6446378854798647
1.3197338140581327,-1.6008100895159814,-0.020564776763159924,0.2617424178924605,-1.6379933582942259
1.3156304386177873,-1.6517191726549925,-0.020468977640295614,0.24734841349761907,-1.6267699051715316
1.3115490783266672,-1.6997605082824805,-0.02034462527090586,0.2330649427772501,-1.6106264273294504
1.3074958080517323,-1.744957011198622,-0.020188077478443464,0.21890008638418168,-1.5891993766411534
1.3034774680671577,-1.7873333209603004,-0.019995322367301283,0.20486301123258335,-1.5621023981726827
1.2995017442668255,-1.8269160285922226,-0.019761915636019638,0.1909640650866384,-1.5289267795206607
1.295577262411294,-1.8637339207049948,-0.01948290291929625,0.17721485604108636,-1.4892431682145482
1.2917137000224481,-1.8978182362799387,-0.019152720969163435,0.16362829970834308,-1.4426052339985396
1.2879219211357187,-1.9292029269700919,-0.018765067898131333,0.1502186071931842,-1.3885562598855719
1.284214141665508,-1.9579249049802598,-0.018312726803975398,0.13700117290850916,-1.3266400739544717
1.280604137248164,-1.9840242524720964,-0.01778731736946335,0.12399230200984336,-1.256418308403158
1.2771075121064217,-2.0075443519600142,-0.017178934047958755,0.1112086928693349,-1.1774966908767937
1.2737420583644428,-2.0285318776755403,-0.01647560337183172,0.0986665642859567,-1.0895638456038066
1.270528252941921,-2.0470365643767465,-0.015662450853384805,0.08638030272610284,-0.9924465991539185
1.2674899677771312,-2.0631106480807446,-0.014720400794514654,0.07436053431390618,-0.8861852615760389
1.2646555152573797,-2.0768078685388147,-0.013624124402998901,0.06261167026680542,-0.771129118063346
1.2620592262561763,-2.088181972047586,-0.012338765609035289,0.0511293648209141,-0.6480435172651442
1.2597438915504962,-2.0972848251206955,-0.01081458144776545,0.03989916591020906,-0.5182020301366065
1.257764683166817,-2.104164663802358,-0.008977502389025368,0.028899220906396204,-0.38341012467376706
1.2561960041857152,-2.108865896443561,-0.006709287421992453,0.018113105505633498,-0.24588223848237378
1.2551461927992904,-2.1114342983278434,-0.003788826442255156,0.007570913337159903,-0.10789882000691078
