x,y,v_x,v_y,omega
2.375,32.48,0.0,2.9743589743589745,-7.510204081632653
2.3735297624620624,31.921197087229732,-0.015476184609870351,2.907776949538537,-7.0639881844644075
2.3693210513094805,31.374797369571215,-0.028826038048885227,2.8437990258142887,-6.657251398593052
2.3627512516628784,30.840322612675003,-0.040329747704822214,2.7822510467774353,-6.285408957188073
2.354148371376186,30.317326032996846,-0.050226886891939576,2.7229761077294774,-5.944514618536416
2.3437981279525304,29.805389246068813,-0.058723043883380725,2.665832175723476,-5.631157639816063
2.3319498924206923,29.304119626947386,-0.06599522487281066,2.6106901308178583,-5.342378703769763
2.3188216986902934,28.813148011234077,-0.07219628807875897,2.557432139848543,-5.07560086311838
2.304604483820315,28.332126679912275,-0.07745860528943616,2.50595029511781,-4.828572481356975
2.2894656915953178,27.86072758260641,-0.08189710234210816,2.456145465996573,-4.599319827437285
2.273552346191095,27.398640762643968,-0.08561179664971204,2.4079263230817536,-4.38610749189152
2.2569936826611965,26.945572954135567,-0.08868992471763912,2.3612085033224544,-4.1874051791784295
2.2399034051395117,26.501246326656606,-0.09120773340536147,2.3159138911929276,-4.001859727842572
2.2223816310445237,26.065397357364283,-0.09323199391030033,2.271969996094701,-3.828271439604207
2.2045165694564184,25.6377758137748,-0.09482128596449506,2.229309410110365,-3.6655739774479468
2.186385973670554,25.218143833151206,-0.09602709072881498,2.1878693332958807,-3.5128172333549106
2.1680584012947697,24.806275086658715,-0.09689472375312219,2.147591156098779,-3.3691526775293146
2.149594309836074,24.401954018242915,-0.09746413370683245,2.108420090383315,-3.233820789514894
2.1310470112695192,24.004975149661973,-0.09777058804637836,2.0703048420476375,-3.1061402425234492
2.112463505407944,23.615142444322508,-0.0978452631280991,2.0331973194204207,-2.9854985694322664
2.0938852088463378,23.23226872358135,-0.09771575330985609,1.9970523725917588,-2.8713440851729084
2.0753485937208898,22.85617513002159,-0.0974065111685465,1.9618275596162662,-2.7631788778824484
2.0568857484065366,22.486690632922457,-0.09693922898253704,1.9274829361640646,-2.660552711965645
2.0385248705030743,22.123651571743686,-0.09633317000127835,1.8939808657177608,-2.5630577114856825
2.020290700968254,21.76690123395533,-0.09560545668104066,1.8612858478438303,-2.470323713132281
2.0022049069980983,21.41628946397996,-0.09477132195217647,1.8293643624232334,-2.3820141952546865
1.9842864201902328,21.071672300387586,-0.09384432865693458,1.7981847280228163,-2.2978227037647425
1.9665517356230853,20.73291163880587,-0.09283656152356581,1.7677169728373585,-2.217469707647923
1.949015176715829,20.399874918286432,-0.09175879539492071,1.737932716840929,-2.1406998267977895
1.9316891300791537,20.072434829110094,-0.09062064288587325,1.708805063962614,-2.0672793832582297
1.914584254007343,19.750469040224765,-0.08943068418581758,1.6803085032513942,-1.9969942339983224
1.8977096637828073,19.43385994469424,-0.08819658133561183,1.6524188181225539,-1.9296478492845515
1.8810730965527502,19.12249442169831,-0.0869251789807774,1.6251130028872243,-1.86505960574006
1.8646810581837263,18.816263613767276,-0.08562259332473711,1.5983691858605185,-1.8030632674427902
1.848538954194788,18.51506271806018,-0.08429429076934884,1.5721665584246733,-1.743505632038603
1.8326512066065095,18.218790790607933,-0.08294515752832107,1.546485309493704,-1.6862453219347475
1.8170213583152752,17.927350562541772,-0.08157956132677878,1.5213065648869637,-1.631151703278509
1.801652166404724,17.64064826741616,-0.08020140615270772,1.496612331172078,-1.5781039176860652
1.7865581418603211,17.35859860473094,-0.07868306273574167,1.4723314865671013,-1.5230144346955679
1.7717514285259353,17.081119165386728,-0.07717707762621542,1.4485047170561858,-1.470357435263734
1.757229512002421,16.808125180938976,-0.07568520156867148,1.4251161718675165,-1.4199972969954047
1.742989569377717,16.539534827189037,-0.07420893132294894,1.4021507097107948,-1.371807394114667
1.729028514796697,16.275269093214128,-0.07274953795094584,1.379593858446135,-1.325669405158117
1.7153430399507181,16.015251657798462,-0.07130809200672711,1.357431777508231,-1.2814726811057973
1.7019296500418593,15.75940877276308,-0.06988548598126103,1.3356512228642075,-1.2391136680571273
1.6887846957140873,15.507669152732088,-0.06848245431107632,1.3142395143041457,-1.198495379193039
1.6759044013883062,15.259963870909434,-0.06709959122345867,1.293184504881684,-1.1595269113248874
1.6632848903894977,15.016226260473509,-0.06573736665873622,1.2724745523385719,-1.1221230018250608
1.650922207211116,14.77639182122697,-0.06439614048212396,1.2520984923618514,-1.086203622171738
1.638812337223881,14.540398131166707,-0.06307617517298277,1.232045613535627,-1.0516936047280268
1.6269512241024615,14.308184762663995,-0.06177764715774581,1.2123056338613534,-1.0185222997198986
1.6153347852137663,14.079693202967686,-0.060500656933783425,1.1928686787313565,-0.9866232596832197
1.6039589251841526,13.854866778764453,-0.05924523811478202,1.1737252602500425,-0.9559339489223968
1.5928195478394649,13.633650584549123,-0.05801136551351027,1.1548662578060511,-0.9263954757657132
1.5819125666910172,13.415991414575924,-0.05679896236488696,1.1362828998065861,-0.8979523456188407
1.5712339141221738,13.20183769817752,-0.055607906780830114,1.117966746492379,-0.8705522330113215
1.5607795494137595,12.991139438253704,-0.05443803751826749,1.0999096737583052,-0.8441457710036996
1.550545465731912,12.783848152745154,-0.05328915913276009,1.0821038579106326,-0.8186863564777845
1.5405276961889824,12.579916818920399,-0.052161046582289115,1.0645417612973074,-0.7941299699712887
1.5307223190764827,12.379299820315655,-0.051053449338759216,1.047216118752629,-0.7704350088426134
1.5211254623587367,12.18195289617795,-0.04996609505856715,1.0301199248021684,-0.7475621326634324
1.5117333075066552,11.987833093271842,-0.04889869285808121,1.0132464215779076,-0.7254741198373402
1.5025420927428135,11.796898719919195,-0.04785093623498906,0.9965890873973329,-0.7041357345334163
1.493557279673797,11.609317623951366,-0.04672604343886786,0.977948764895586,-0.7272936251312517
1.4847812203676733,11.425267474427308,-0.045653528204537615,0.9594212300944884,-0.7521142694407651
1.4762041060674322,11.244727125259157,-0.04463188548221308,0.9410034979912999,-0.7784803441258342
1.4678164166501388,11.06767598587557,-0.043659582068244225,0.9226927060464346,-0.8062769705276556
1.4596089255709153,10.894093998339784,-0.042735060870951316,0.9044861101197533,-0.8353914524294335
1.4515727040372435,10.723961615198586,-0.04185674474664491,0.886381080840228,-0.8657130189774105
1.443699124492472,10.557259777980736,-0.041023039935161314,0.868375100400314,-0.8971325716503451
1.435979863482113,10.393969896264611,-0.04023233912124842,0.8504657597694174,-0.929542434175183
1.4284069039717933,10.23407382723574,-0.03948302414527351,0.832650756323969,-0.9628361042840239
1.4209725371815152,10.077553855654951,-0.0387734683839699,0.8149278918948433,-0.9969080061963883
1.4136693639972076,9.924392674157499,-0.038102038819269206,0.7972950712362464,-1.0316532426910077
1.4064902960173646,9.774573363802297,-0.03746709781065714,0.7797503009237714,-1.0669673456025608
1.3994285562898798,9.62807937478869,-0.03686700458391954,0.7622916886931476,-1.1027460235405653
1.3924776797919818,9.484894507255483,-0.03630011644658577,0.7449174432353425,-1.1388849055795043
1.3856315137044646,9.345002892073648,-0.03576478973780512,0.7276258744681744,-1.1752792796106781
1.378884217530184,9.208388971539765,-0.035259380517779354,0.7104153943095335,-1.2118238239765746
1.3722302631060717,9.075037479871995,-0.0347822449991943,0.6932845179827758,-1.2484123309270563
1.3656644345577185,8.944933423403992,-0.03433173972031397,0.676231865890926,-1.2849374203426491
1.359181828245922,8.818062060364557,-0.03390622145648938,0.6592561661031245,-1.3212902420629131
1.3527778527554988,8.694408880121845,-0.03350404686375527,0.642356257504382,-1.3573601650365765
1.3464482289781763,8.573959581760441,-0.033123571844901736,0.6255310936683082,-1.3930344513741753
1.3401889903435478,8.456700051847342,-0.03276315062487126,0.6087797475222082,-1.4281979132328935
1.3339964832549278,8.342616341228663,-0.03242113451849583,0.5921014168849541,-1.462732550296983
1.3278673677905777,8.231694640682392,-0.032095870369400335,0.5754954309705423,-1.4965171654358576
1.3217986187352266,8.123921255233569,-0.03178569863429505,0.5589612579644421,-1.5294269559267586
1.3157875270121984,8.019282576916332,-0.03148895108179312,0.5424985137959532,-1.5613330774219034
1.3098317015928505,7.917765055742148,-0.03120394806923777,0.5261069722480726,-1.5921021776249855
1.303929071967575,7.819355168604709,-0.030928995354715258,0.5097865765670604,-1.6215958964248598
1.2980778912714133,7.724039385818902,-0.030662380394354233,0.4935374527572399,-1.6496703290245864
1.2922767401675812,7.631804134953551,-0.030402368067037014,0.47735992477277855,-1.6761754484158427
1.2865245316040494,7.542635761574633,-0.030147195759612857,0.4612545318474087,-1.7009544834029349
1.2808205165720228,7.456520486466779,-0.029895067735404037,0.4452220482352845,-1.7238432483076898
1.275164291010947,7.37344435884566,-0.029644148696972034,0.42926350567121974,-1.744669420530426
1.2695558040228951,7.293393205011789,-0.0293925564404176,0.4133802188958593,-1.7632517623662942
1.2639953675802222,7.216352571826853,-0.029138353482454957,0.39757381462976626,-1.779399283971125
1.2584836679347544,7.142307664317318,-0.02887953752246912,0.38184626441795316,-1.792910345265937
1.2530217789651346,7.071243276626646,-0.028614030578792478,0.36619992179966665,-1.8035716960489752
1.247611177732186,7.003143715448907,-0.028339666610138713,0.3506375642818063,-1.811157455911724
1.2422537625514662,6.937992714985171,-0.028054177397438998,0.33516244059963013,-1.8154280391060806
1.2369518739392757,6.875773342374611,-0.027755176415092765,0.31977832372206205,-1.8161290348194343
1.231708318845734,6.816467892472861,-0.02744014035903005,0.3044895699805837,-1.8129900611479348
1.226526398659754,6.760057770793459,-0.027106387914442653,0.28930118453942577,-1.8057236225094406
1.221409941561343,6.706523363414487,-0.02675105522672494,0.2742188931339832,-1.7940240168702617
1.2163633399150053,6.655843892712891,-0.026371067366303194,0.2592492195143764,-1.7775663632081062
1.2113915935571433,6.60799725797137,-0.025963104821717903,0.24439956723847053,-1.7560058542828738
1.2065003600506523,6.562959860278632,-0.02552356366766,0.22967830321139263,-1.7289773895570322
1.2016960132936525,6.520706411821184,-0.025048507458654157,0.21509483844596097,-1.6960958143573281
1.1969857123278673,6.481209730801247,-0.024533607970664572,0.20065969860602428,-1.6569570929135427
1.1923774828777096,6.444440525040708,-0.023974070452048878,0.18638457255754007,-1.6111408866545183
1.1878803151954052,6.410367170170076,-0.023364536730103833,0.17228232081753103,-1.558215210454221
1.1835042834017688,6.3789554925991645,-0.02269895583448859,0.15836691677100637,-1.497744116567211
1.179260694034478,6.350168573796399,-0.02197040592646579,0.14465328115284046,-1.429299726253575
1.1751622754828028,6.323966601425884,-0.021170841985905253,0.13115695432624885,-1.3524803991172216
1.1712234262433951,6.30030680517412,-0.02029072895522839,0.11789353253442897,-1.26693737048906
1.1674605497801018,6.279143530630545,-0.01931849697417414,0.10487777845057324,-1.1724126771103596
1.1638925191904408,6.260428521646382,-0.01823971975910038,0.09212231611955986,-1.0687913094761134
1.160541338846793,6.244111494420078,-0.017035862805614626,0.0796358652099577,-0.9561695640898152
1.1574331073463295,6.230141081106396,-0.015682363515052745,0.06742111703933715,-0.8349381732866106
1.154599445090464,6.218466168270943,-0.014145660230899583,0.05547270228122654,-0.705870905831783
1.152079652392424,6.209037505073606,-0.012378473432679228,0.043776384006517864,-0.5701950222546719
1.1499240828910806,6.20180912597154,-0.010311731844619993,0.032311817067860654,-0.42960045470957026
1.1481998400465676,6.196738462514947,-0.007838192834463627,0.02106358773836122,-0.2861292547603137
1.1470023323245104,6.19378231609932,-0.004767151608243661,0.010053742952457052,-0.14189351031781158
1.1464918464126383,6.1928765398265675,-0.0006063843061989279,-0.0005192558708391349,0.001325995227400123
