x,y,v_x,v_y,omega
2.375,32.48,0.0,3.4871794871794872,-6.775510204081632
2.373570697572078,31.859814412590364,-0.015881138088022603,3.4037714840386415,-6.334350108563558
2.369496746319758,31.25432403556086,-0.029384986937759212,3.323899371844753,-5.936303260001366
2.3631752570013,30.662914546223824,-0.040853783267327866,3.247317176344522,-5.5759013191534015
2.3549465717583216,30.085013686566093,-0.05057605276576447,3.173803486519173,-5.248499333369732
2.345103089927791,29.520087144868416,-0.05879596757346173,3.103158087899451,-4.950133690211186
2.3338965728806067,28.967634989537352,-0.06572088850636679,3.0351991935568083,-4.677407667217405
2.3215442193233864,28.42718855914679,-0.07152748435163331,2.9697611441161347,-4.427398600921901
2.3082337403741047,27.89830773298598,-0.07636672619594267,2.906692479892833,-4.197582130816209
2.2941276163178825,27.380578521773362,-0.08036798553985923,2.8458543113584924,-3.9857700291724
2.2793666804020334,26.873610929949294,-0.08364241352513278,2.787118931131137,-3.7900589138865852
2.2640731465907566,26.37703705004899,-0.08628573993349664,2.7303686233167217,-3.6087877335442093
2.2483531758862063,25.890509356754297,-0.08838060122817377,2.6754946355131826,-3.440502363996579
2.232299058183343,25.413699173819875,-0.08999848435919763,2.622396285980394,-3.2839260009229965
2.2159910725871343,24.946295291523032,-0.0912013555986725,2.5709801839845148,-3.137934299720185
2.1994990778783965,24.48800271586245,-0.0920430300539715,2.5211595455775044,-3.001534421910386
2.182883875761023,24.038541533625732,-0.09257032680573435,2.4728535903860713,-2.873847310251625
2.1661983821947017,23.597645879808056,-0.09282404615339152,2.425987007588096,-2.7540926433594564
2.1494886361564585,23.165062995806558,-0.09283979871597595,2.3804894813174444,-2.6415760227527936
2.132794670304759,22.74055236842332,-0.09264871074735495,2.3362952673852053,-2.535678026731146
2.1161512640252504,22.323884941050906,-0.09227802569162868,2.2933428145304995,-2.435844830870468
2.099588596047716,21.91484238953926,-0.09175161850320147,2.2515744244877753,-2.3415801476292417
2.083132811105104,21.51321645619234,-0.09109043641470861,2.210935946033612,-2.2524382802356437
2.0668065128509148,21.118808336148703,-0.09031287752072373,2.171376498895631,-2.1680181207357325
2.050629193375432,20.73142811108802,-0.08943511665130936,2.132848224000822,-2.0879579504244807
2.034617608095892,20.350894225794793,-0.08847138645468818,2.0953060570350694,-2.0119309241133543
2.0187861034854935,19.977033003618715,-0.08743422032751763,2.0587075226991223,-1.9396411388012043
2.003146904006471,19.609678197310352,-0.08633466277273394,2.0230125473938276,-1.8708202030947279
1.987710363687058,19.2486705720924,-0.08518245188741191,1.9881832883611568,-1.8052242367956695
1.9724851870013782,18.893857518159777,-0.08398617795347349,1.9541839775568917,-1.742631240933933
1.9574786230509498,18.54509269009274,-0.08275342149573113,1.9209807787435327,-1.6828387875798962
1.9426966364866505,18.202235670923148,-0.08149087366315008,1.8885416564741526,-1.6256619863386927
1.928144058134306,17.86515165881896,-0.08020444136290038,1.8568362557946052,-1.5709316907755335
1.913824717881976,17.533711174551037,-0.07889933921854281,1.8258357916267633,-1.5184929133565166
1.899741562041331,17.207789788082486,-0.07758017012195695,1.7955129469126703,-1.4682034219867763
1.885896757099906,16.88726786277722,-0.07625099589387854,1.7658417787013845,-1.4199324950285597
1.8722917815277436,16.57203031586367,-0.07491539935236821,1.7367976314491842,-1.3735598149017816
1.8589275070845122,16.261966393913905,-0.07357653890575962,1.7083570568815551,-1.3289744831041
1.8458042708861746,15.956969462209539,-0.07223719663132609,1.6804977398336112,-1.2860741418151749
1.8329219393291751,15.656936806965408,-0.07089982066866707,1.653198429545625,-1.244764189235546
1.820279964831035,15.361769449471407,-0.06956656264400034,1.6264388759432862,-1.2049570775084189
1.8078774362260144,15.071371971293392,-0.06823931074511821,1.6001997704791213,-1.1665716835274282
1.7957131235503765,14.7856523497465,-0.06691971898419141,1.5744626911529984,-1.1295327441825436
1.78378551786147,14.504521802919744,-0.06560923311476734,1.54921005136649,-1.0937703486709414
1.772092866656382,14.227894643589881,-0.0643091136084345,1.5244250522986673,-1.0592194814260785
1.760633205387643,13.955688141416186,-0.06302045604422211,1.5000916385201535,-1.02581961001834
1.7494043855139871,13.687822392856415,-0.06174420921862021,1.4761944565883984,-0.9935143130730155
1.7384103586085344,13.424222544952269,-0.060411645286410603,1.4526927423465457,-0.9603340097722116
1.7276539157521051,13.164816199915848,-0.05910438645169238,1.4295999802803712,-0.928539937543933
1.7171305050569936,12.909530966895858,-0.05782239904954837,1.4069026088306065,-0.8980587192807581
1.7068355870270162,12.658296844907099,-0.05656557906131103,1.3845876354889406,-0.8688215953006623
1.6967646463518622,12.41104612312359,-0.05533376177373104,1.3626426065500628,-0.8407640861502204
1.6869132020638467,12.167713286444044,-0.05412673031533025,1.3410555787782386,-0.8138256833379108
1.677276816247533,11.928234925997767,-0.052944223199265075,1.3198150928470798,-0.7879495654149665
1.667851101470802,11.692549654283454,-0.051785940986637545,1.298910148423085,-0.763082337084426
1.6586317270866398,11.460598024655688,-0.0506515521707208,1.278330180774307,-0.7391737892529813
1.6496144245379063,11.232322454894426,-0.049540698370761145,1.25806503879528,-0.7161766781484071
1.6407949917823081,11.007667154611514,-0.04845299891366411,1.2381049643481976,-0.6940465218108691
1.6321692969415282,10.786578056265622,-0.04738805487277975,1.2184405728283927,-0.6727414124319121
1.6237332812667271,10.569002749572814,-0.0463454526250111,1.199062834869487,-0.6522218431627637
1.6154829615022366,10.35489041911464,-0.04532476698043921,1.1799630591102486,-0.6324505481457918
1.607414431720075,10.144191784959101,-0.04432556393246793,1.16113287595127,-0.6133923546413212
1.5995238646897596,9.936859046122326,-0.04334740307103543,1.1425642222351258,-0.595014046228105
1.5918075128406701,9.732845826710179,-0.04238983969662712,1.1242493267887284,-0.5772842361509474
1.5842617088678017,9.532107124589782,-0.041452426668575904,1.1061806967712318,-0.5601732499744895
1.5768828660260654,9.334599262450617,-0.040534716017381865,1.0883511047750685,-0.5436530167790691
1.5696674781532294,9.140279841124016,-0.039636260347464564,1.0707535766315848,-0.5276969682037872
1.5626121194571134,8.949107695038307,-0.038756614053823635,1.053381379876296,-0.5122799447042936
1.555713444098656,8.761042849694558,-0.03789533437348274,1.036228012832049,-0.4973781084490629
1.5489681855989166,8.57604648105525,-0.0370519822902869,1.0192871942713762,-0.4829688623287343
1.5423731560949285,8.394080876744841,-0.036226123309579354,1.0025528536220838,-0.4690307745989986
1.535925245466494,8.215109398967414,-0.03541732811747049,0.986019121682649,-0.45554350871904287
1.5296285645358,8.039323343195836,-0.03454579333468582,0.9671592757793435,-0.4928085953481814
1.5234840078883374,7.866922849225329,-0.03372705830378947,0.9484017683373939,-0.531246178543707
1.5174822383462638,7.697889723505416,-0.032959269941472656,0.929744072994982,-0.570752618048226
1.5116142520161375,7.532206218123562,-0.03224057817103959,0.9111837645811734,-0.6112256803512308
1.5058713775798784,7.3698550128072995,-0.03156913778739646,0.8927185167106343,-0.6525643084026729
1.5002452752745943,7.210819197326156,-0.03094311004909521,0.8743460997465093,-0.6946683922732881
1.4947279356090304,7.055082254226967,-0.030360664012725073,0.8560643791333582,-0.7374385397308268
1.48931167786185,6.902628041835509,-0.029819977622611144,0.8378713141050766,-0.7807758456756565
1.4839891484048322,6.753440777456216,-0.029319238566476558,0.8197649567759615,-0.8245816593447904
1.4787533188923607,6.607505020699989,-0.02885664490542911,0.8017434516265516,-0.8687573481497095
1.4735974843572832,6.464805656867629,-0.028430405484321457,0.7838050353996535,-0.9132040569597741
1.468515261252338,6.32532788031331,-0.028038740126180597,0.7659480374260976,-0.95782246157884
1.4635005854759036,6.18905717770857,-0.027679879611980727,0.7481708804043344,-1.0025125150870682
1.4585477104208189,6.055979311122503,-0.027352065444514795,0.7304720816630593,-1.0471731856319375
1.45365120508549,5.9260803008280725,-0.027053549392472905,0.7128502549417295,-1.0917021841510939
1.448805952287445,5.799346407737598,-0.026782592808026234,0.695304112730218,-1.1359956803938007
1.4440071470209843,5.675764115362433,-0.02653746570820547,0.6778324692160576,-1.1799480054762053
1.4392502950026058,5.555320111182358,-0.02631644560711174,0.660434243895893,-1.2234513390571837
1.4345312114505444,5.438001267299192,-0.026117816082459118,0.6431084659170526,-1.2663953790549627
1.4298460201480767,5.323794620236342,-0.02593986505606962,0.6258542792257376,-1.308666991638902
1.4251911528443006,5.2126873497310875,-0.025780882763665972,0.6086709486104311,-1.350149839024828
1.4205633490509593,5.104666756349282,-0.02563915938456899,0.5915578667429711,-1.3907239823755493
1.4159596562996515,4.9997202377322125,-0.025512982296631043,0.5745145623355848,-1.43026545686066
1.411377430930529,4.897835263262479,-0.02540063291584028,0.5575407095503473,-1.4686458156624338
1.406814339491496,4.798999346909298,-0.025300383073415256,0.5406361388183168,-1.5057316394298665
1.4022683608360698,4.703200017983203,-0.0252104908757646,0.523800849249384,-1.5413840073853333
1.3977377890186657,4.610424789495067,-0.025129195984281025,0.5070350228410023,-1.5754579259855421
1.3932212370982626,4.520661123774143,-0.02505471424241908,0.49033904072481965,-1.6078017107428428
1.3887176419754432,4.433896394953649,-0.024985231566687083,0.4737135017251225,-1.638256316543497
1.3842262704039157,4.350117847879591,-0.02491889700583915,0.4571592435421827,-1.6666546115849192
1.3797467263361343,4.269312552938256,-0.02485381485839954,0.4406773669171117,-1.692820589936776
1.3752789597838693,4.191467356229296,-0.02478803572232284,0.4242692631824352,-1.716568517773793
1.3708232773990159,4.1165688244340615,-0.02471954633160432,0.4079366456535149,-1.7377020086225983
1.366380355008061,4.044603183642078,-0.024646258012338582,0.391681585368533,-1.7560130236437403
1.361951252366178,3.9755562513026668,-0.024565993564140274,0.37550655173602415,-1.7712807942256779
1.3575374304347498,3.9094133603639847,-0.02447647234061764,0.3594144586937654,-1.7832706662786888
1.3531407715304526,3.846159274550395,-0.02437529326268435,0.3434087170127946,-1.7917328689864698
1.34876360274651,3.7857780936148693,-0.02425991544778879,0.3274932933819167,-1.7964012159853286
1.3444087231097477,3.7282531472930955,-0.0241276360717927,0.3116727768600057,-1.796991754840896
1.3400794350141312,3.6735668765919627,-0.02397556499061329,0.2959524531525993,-1.7932013925063823
1.335779580567844,3.621700700986807,-0.0238005955236878,0.2803383869046877,-1.7847065419542116
1.3315135836148013,3.5726348701101216,-0.023599370621230648,0.2648375117251499,-1.7711618609574358
1.3272864983555623,3.5263482986382186,-0.023368243370313502,0.24945772685153947,-1.752199191804266
1.3231040657172228,3.482818383397202,-0.023103230389013855,0.23420799804863288,-1.7274268659731542
1.3189727789397059,3.4420208023307595,-0.02279995602784161,0.21909845824516125,-1.6964296182563217
1.31489996030997,3.4039292960740966,-0.02245358430255589,0.20414050016218493,-1.6587694715441694
1.3108938516726665,3.3685154347197894,-0.02205873388970517,0.18934684821899098,-1.6139881218436112
1.3069637224178554,3.3357483753199126,-0.02160936894152828,0.17473158955742374,-1.5616115937235704
1.3031200003272385,3.3055946202777235,-0.02109865428754771,0.16031013313356307,-1.501158275092966
1.2993744333336892,3.278017793757048,-0.02051875675188819,0.1460990504295179,-1.43215190489424
1.295740294541781,3.252978463451363,-0.01986056315820193,0.13211573074476549,-1.3541416965072688
1.2922326497848438,3.230434049361609,-0.01911326747443481,0.11837775914140974,-1.2667325121021613
1.2888687181770442,3.2103388799148718,-0.018263750390005027,0.10490190137789213,-1.1696287257526095
1.2856683740969237,3.192644477148125,-0.017295628278001022,0.09170257380819141,-1.0626957290372285
1.2826548677511243,3.177300170150364,-0.016187775564216147,0.07878972616692526,-0.9460420020147071
1.2798558872310384,3.1642541321451745,-0.014912007992294042,0.06616625166850514,-0.820120414575393
1.2773051596486764,3.1534548742012767,-0.013429409589505083,0.053825503263685626,-0.685836919808876
1.275044922974606,3.144853039008904,-0.011684331233500081,0.041750443318219956,-0.5446350578614003
1.2731298994946165,3.138402907404835,-0.009593707433047726,0.02991768561589752,-0.3984974378332219
1.271634315377584,3.13406211350582,-0.007023893867314768,0.01831335770649784,-0.24978496247037452
1.2706675112751613,3.1317854070942985,-0.0037183739373803965,0.006983380199294955,-0.10084862726505645
