x,y,v_x,v_y,omega
2.375,32.48,0.0,3.948717948717949,-3.1020408163265305
2.3741432949966015,31.739992352528752,-0.009017947404196897,3.8408362351898995,-2.8642372301316352
2.3717242716683407,31.01997996018242,-0.016445456051177663,3.7382415789819934,-2.6540368756244486
2.368019412975051,30.318996275423622,-0.022553056509767126,3.640534050057988,-2.4673378514656674
2.36325851803183,29.636146900956305,-0.02756162710308472,3.5473541022295825,-2.300752493324632
2.357633191254607,28.97060240871509,-0.03165233897294742,3.4583773950463286,-2.15146708842373
2.3513036476937828,28.321592064741818,-0.03497443535151788,3.373310436251296,-2.0171320319983113
2.344404197623532,27.688398319017136,-0.037651354861645926,3.2918868871664135,-1.8957752235727532
2.3370476888460208,27.070351945854465,-0.03978557963847386,3.2138644092827358,-1.7857333415974006
2.329329121755764,26.466827741076592,-0.04146249499580786,3.139021956800146,-1.685596970892849
2.3213286043075194,25.877240698411633,-0.04275347814361169,3.0671574396731067,-1.5941665362543622
2.313113777584301,25.301042600450458,-0.0437183821007926,2.9980856967603255,-1.5104167192515259
2.304741814743701,24.737718969884916,-0.044407542537101344,2.9316367302453585,-1.433467574668323
2.2962610745998444,24.186786335169046,-0.044863406345596143,2.8676541615006736,-1.3625609681784348
2.2877124744103625,23.647789771639303,-0.04512185880684584,2.805993875654482,-1.297041263349236
2.279130633424753,23.12030068481566,-0.04521330946273057,2.7465228277522837,-1.2363394195076767
2.2705448285492023,22.60391480732654,-0.045163583964118584,2.6891179879226783,-1.17995984093441
2.261979795445425,22.098250384845905,-0.04499465923353935,2.6336654066103447,-1.127469455837293
2.2534564020179353,21.602946529745918,-0.04472527158214007,2.580059383915837,-1.0784886105752014
2.2449922161834905,21.117661723969128,-0.044371421412015645,2.528201729524054,-1.0326834480617078
2.2366019857739503,20.642072455000985,-0.04394679342524897,2.478001101719545,-0.9897595047031147
2.2282980451811163,20.175871970849826,-0.04346310755194799,2.42937241566111,-0.949456311769752
2.2200906607404978,19.718769141675857,-0.04293041287561824,2.3822363124859183,-0.9115428279026655
2.2119883247394814,19.27048741720103,-0.042357334503502604,2.3365186819859516,-0.8758135619065152
2.2039980062219557,18.830763870316524,-0.04175128147045213,2.292150232587788,-0.8420852708980887
2.196125365366024,18.399348318416394,-0.041118622276195074,2.2490661032030714,-0.8101941396703027
2.1883749370711567,17.97600251495048,-0.04046483345925042,2.2072055122275973,-0.7799933638766341
2.180750288456217,17.56049940452943,-0.03979462564537992,2.166511439572926,-0.751351073180853
2.1732541542008446,17.152622435647366,-0.03911205072695817,2.1269303381329885,-0.7241485415067825
2.1658885530282768,16.752164925729062,-0.038420593194811635,2.0884118715333586,-0.6982786404755805
2.158654888102731,16.358929473770942,-0.03772324812671644,2.0509086753942283,-0.6736444994371716
2.1515540336788836,15.972727416339911,-0.03702258791378416,2.014376139669265,-0.6501583415065603
2.1445864099784577,15.59337832312995,-0.03632081945912467,1.9787722099092746,-0.6277404699574438
2.1377520479665386,15.220709528661452,-0.03561983329791592,1.9440572055485998,-0.606318383405887
2.1310506454472273,14.854555697049086,-0.034921245852729856,1.9101936535289425,-0.5858260015964426
2.124481615686098,14.494758417066215,-0.034226435843367924,1.8771461357644224,-0.5662029864108006
2.118044129588615,14.14116582500247,-0.03353657570908315,1.8448811491170949,-0.5473941450584471
2.1117371523133976,13.79363225305012,-0.03285265876689121,1.8133669766971243,-0.5293489043635674
2.1055594750723485,13.452017901168126,-0.032175522717834124,1.7825735694291398,-0.5120208467003031
2.099509742762291,13.116188530563214,-0.031505870019612754,1.7524724369383675,-0.49536729950451414
2.093586477981683,12.78601517709772,-0.03084428556573883,1.7230365469089475,-0.47934897144930566
2.0877881019086004,12.461373883086726,-0.030191252045657695,1.694240232154148,-0.46392962935040927
2.082112952450286,12.142145446084115,-0.029547163305018713,1.6660591047154516,-0.44907581069617225
2.076559300018336,11.82821518338043,-0.028912335978667304,1.6384699763759931,-0.43475656740011653
2.0711253612355542,11.519472711046415,-0.02828701962955787,1.6114507850346698,-0.42094323697218256
2.0658093108393683,11.215811736456192,-0.027671405593452065,1.5849805264413552,-0.4076092378147327
2.0606092920113968,10.917129863314287,-0.027065634700989466,1.5590391908418753,-0.39472988578512397
2.0555234253324572,10.623328408292487,-0.026469804024684823,1.5336077041244234,-0.3822822295397853
2.0505498165362077,10.334312228456401,-0.025883972777942188,1.508667873097548,-0.3702449024949274
2.0456865632121097,10.04998955872853,-0.02530816747572013,1.484202334564254,-0.35859798951434785
2.04093588403014,9.77027222987072,-0.02469898180817367,1.4601906007811085,-0.3461704304834275
2.036299509923659,9.49507513011724,-0.024104956154785213,1.4366209755713129,-0.33428513675634747
2.031774590201414,9.224315699199767,-0.023525777763584672,1.4134782972441806,-0.32291223303099964
2.027358334560797,8.957914194875691,-0.022961123716595446,1.3907480640618721,-0.3120238010826219
2.023048014751503,8.695793570969613,-0.022410663749655352,1.3684163981073882,-0.3015937311223992
2.018840965741425,8.43787936205712,-0.021874062672216265,1.3464700114978037,-0.2915975859533715
2.014734586455857,8.184099574362023,-0.021350982439028218,1.3248961747663899,-0.2820124766946119
2.010726340151859,7.934384582470248,-0.02084108391884497,1.3036826872523095,-0.2728169489746338
2.0068137544816227,7.688667031493015,-0.020344028399432085,1.2828178493501528,-0.2639908786099923
2.0029944212916835,7.4468817443387785,-0.019859478863086717,1.2622904364839098,-0.2555153758869299
1.9992659961987544,7.208965633778099,-0.019387101062481097,1.2420896746811405,-0.2473726976543064
1.9956261979776504,6.974857619008233,-0.018926564422825504,1.222205217633246,-0.23954616651633426
1.992072807792144,6.744498546445062,-0.0184775427930314,1.2026271251369647,-0.2320200964850551
1.988603668295567,6.517831114489095,-0.018039715065672906,1.183345842820599,-0.2247797245160819
1.9852166826244395,6.294799802029857,-0.017612765683036213,1.1643521830661223,-0.21781114740783533
1.9819098133053368,6.075350800469273,-0.01719638504436167,1.1456373070452708,-0.21110126359511905
1.978681081092512,5.859431949059534,-0.016790269827478516,1.1271927077940838,-0.20463771941312076
1.9755285637514464,5.64699267336476,-0.016394123236370815,1.1090101942561563,-0.19840885944840597
1.9724503948014387,5.437983926668558,-0.016007655184762486,1.0910818762301742,-0.19240368062973545
1.9694447622285547,5.232358134161288,-0.015630582424542214,1.0734001501621524,-0.1866117897440585
1.9665099071786827,5.030069139751795,-0.015262628626741223,1.05595768572725,-0.18102336409223135
1.9636441226390706,4.831072155358449,-0.014903524421807951,1.0387474131501013,-0.17562911502525028
1.9608457521155165,4.635323712543634,-0.01455300740507571,1.0217625112163493,-0.17042025412539724
1.9581131883113396,4.442781616364588,-0.014210822112576809,1.0049963959314938,-0.16538846181795727
1.9554448718133328,4.253404901321396,-0.01387671997170613,0.9884427097863255,-0.1605258582183345
1.9528421653129269,4.067354033916008,-0.013520190558882988,0.9699874734282731,-0.1975512791394433
1.9503035619553606,3.8847997464705806,-0.013201950047077294,0.9516366049446587,-0.2358610382664418
1.9478218875709703,3.705722463142454,-0.012920938209663932,0.933387430088244,-0.2753554419591862
1.9453901726405993,3.530103106586555,-0.01267606105739689,0.9152373757633303,-0.3159364467106356
1.943001658321184,3.3579230790196632,-0.012466194936450114,0.8971839670460497,-0.3575074437121823
1.9406498017307205,3.189164243818304,-0.012290190226322457,0.8792248245471915,-0.399973045318371
1.93832828056627,3.0238089075854084,-0.012146874662631169,0.8613576621148729,-0.4432388724940429
1.9360309971241578,2.861839802621187,-0.012035056306969907,0.8435802848769128,-0.4872113423086153
1.9337520817875873,2.7032400697334644,-0.011953526183247609,0.825890587625449,-0.5317974545162346
1.931485896043442,2.547993241321876,-0.011901060597228254,0.8082865535491812,-0.5769045762264274
1.9292270350871388,2.3960832246691446,-0.011876423153332623,0.790766253321685,-0.6224402236270385
1.9269703300719612,2.2474942853706175,-0.011878366480114958,0.7733278445575479,-0.6683118396689927
1.9247108500574,2.1022110308307376,-0.011905633673161829,0.7559695716517103,-0.7144265665599437
1.922443903709612,1.9602183937517914,-0.01195695946144781,0.7386897660213954,-0.7606910118402439
1.9201650408062374,1.8215016155361852,-0.012031071100391038,0.7214868467744571,-0.8070110067288152
1.9178700535974653,1.6860462295184817,-0.012126688991946976,0.7043593218329618,-0.8532913553272331
1.915554978075473,1.5538380439374393,-0.01224252702902311,0.6873057895464216,-0.8994355731562721
1.9132160952051822,1.4248631245511625,-0.012377292658249767,0.6703249408354467,-0.9453456133688275
1.9108499321707408,1.2991077767899846,-0.012529686651656834,0.6534155619137982,-0.9909215788348493
1.9084532636943006,1.176558527331892,-0.01269840257403207,0.6365765376450606,-1.0360614181259211
1.9060231134865488,1.0572021049736513,-0.012882125928616723,0.6198068555995808,-1.0806606032374864
1.9035567558922002,0.941025420657315,-0.01307953295926413,0.6031056108881577,-1.1246117866734953
1.9010517177982635,0.8280155464961041,-0.013289289082174137,0.5864720118614318,-1.167804435279458
1.8985057808785568,0.7181596936253278,-0.01351004691473854,0.569905386778309,-1.2101244379437133
1.895916984254691,0.6114451886828682,-0.013740443862796306,0.5534051915633644,-1.2514536839916293
1.8932836276617688,0.5078594486990724,-0.013979099220595738,0.5369710187923745,-1.2916696087725332
1.8906042752164745,0.40738995414739776,-0.014224610729871353,0.520602608067338,-1.3306447025844752
1.8878777598962617,0.3100242198740375,-0.014475550535525699,0.5042998579680243,-1.3682459786991938
1.8851031888511836,0.21574976358638764,-0.014730460465297817,0.4880628397967478,-1.4043343958430787
1.8822799496847957,0.12455407153580467,-0.014987846549311352,0.471891813367261,-1.438764230067573
1.8794077178577921,0.03642456097875879,-0.015246172682303636,0.4557872451279531,-1.4713823905181502
1.8764864653879174,-0.04865146105907314,-0.015503853316377214,0.43974982895448517,-1.5020276732070812
1.87351647104264,-0.1306868432595607,-0.015759245054965756,0.4237805099980523,-1.530529946546639
1.8704983322475162,-0.2096946403525024,-0.01601063699896895,0.4078805120328915,-1.5567092621596867
1.8674329789636621,-0.2856881690326105,-0.01625623967317902,0.39205136881033564,-1.5803748844344334
1.8643216898229298,-0.35868107026919915,-0.01649417233452938,0.37629495999583257,-1.6013242325501449
1.861166110850068,-0.42868737894090714,-0.016722448432438065,0.3606135523379554,-1.619341729449809
1.8579682771483261,-0.4957216018581292,-0.01693895895431816,0.3450098467906663,-1.6341975537392621
1.8547306379799555,-0.5597988053788754,-0.01714145334431963,0.3294870323750644,-1.6456462931415459
1.8514560857376097,-0.6209347139777179,-0.017327517627740253,0.31404884761278384,-1.6534255025082916
1.848147989379195,-0.6791458212861485,-0.017494549302940737,0.29869965037068513,-1.6572541763403938
1.844810232990755,-0.734449515276296,-0.01763972847011152,0.28344449689404777,-1.6568311565601195
1.8414472602547276,-0.7868642193904094,-0.01775998454070496,0.2682892306229387,-1.651833512773972
1.8380641257423864,-0.8364095514950165,-0.017851957694465362,0.25324058100453395,-1.6419149572373866
1.834666554132135,-0.8831065025122911,-0.017911953992390615,0.23830627180885075,-1.626704394279737
1.8312610086998957,-0.9269776363713618,-0.01793589266275966,0.22349513723403594,-1.6058047601424672
1.8278547707675075,-0.9680473124037334,-0.017919243467644418,0.20881724205408353,-1.5787923929811396
1.824456032285182,-1.006341930281792,-0.01785695108314971,0.1942839987675594,-1.5452172972989988
1.8210740044575786,-1.0418901957655322,-0.017743341838990626,0.1799082694823365,-1.5046048512479113
1.8177190464569466,-1.0747234024210286,-0.017572005536084224,0.1657044321544473,-1.4564597756789128
1.8144028200677056,-1.1048757194304955,-0.01733564066645127,0.15168837847152006,-1.4002735762159555
1.8111384790284442,-1.132384467674143,-0.01702584395735455,0.1378773925142589,-1.3355372272364012
1.8079409066502303,-1.1572903541763608,-0.01663281265542292,0.12428983382488003,-1.2617616302670092
1.8048270232956174,-1.1796376173687833,-0.01614490686681874,0.110944515569014,-1.178509354501226
1.8018161986740835,-1.199474011479296,-0.015547983886169145,0.09785963296272057,-1.085442237943191
1.798930826223237,-1.2168505289378402,-0.014824357701686407,0.08505107712719527,-0.9823901566145827
1.7961971539237285,-1.231820732540804,-0.013951140187877326,0.07253001343033261,-0.8694454921769772
1.793646527452479,-1.24443956669095,-0.012897559509484601,0.06029981972907862,-0.7470829997145808
1.791317306153579,-1.2547615916793617,-0.011620559426305646,0.04835307488577482,-0.6162914421769633
1.7892579078360804,-1.262838839398455,-0.010057317599994687,0.036670585315214076,-0.47867652584855946
1.7875318982323023,-1.2687191050966717,-0.008111204545039179,0.025226948350226014,-0.3364559683295548
1.7862275681933584,-1.2724469055026049,-0.00561858533857993,0.014013055922723384,-0.19223833146326832
1.7854823183342026,-1.274074313023398,-0.002226150020954313,0.003117549559325956,-0.04850628821015296
