x,y,v_x,v_y,omega
2.375,32.48,0.0,2.4615384615384617,-6.040816326530612
2.3738191623117095,31.968521949989658,-0.011246073221814557,2.4096810623695304,-5.708865615703942
2.370428174206092,31.46773988113977,-0.021049051593586915,2.3596719742960754,-5.403818598513621
2.365111587215399,30.97727755336946,-0.02958511022253903,2.311397813992555,-5.122796120791519
2.358119437504062,30.496781461620344,-0.037006791790193054,2.264755440760964,-4.86328947873754
2.3496718340491527,30.025918820248123,-0.04344657444704055,2.2196506675459036,-4.623105150931997
2.339962861613215,29.56437579614885,-0.04901982970474711,2.1759971810186016,-4.400318935164628
2.3291639141928084,29.11185595097623,-0.05382728858483741,2.1337156301491977,-4.1932376830369105
2.31742655251088,28.668078860390025,-0.057957108385913905,2.092732851624202,-4.00036721392562
2.304884961778106,28.23277888420923,-0.061486612878598426,2.0529812072404727,-3.8203852858636522
2.2916580722253697,27.805704066022727,-0.06448376381412707,2.0143980135833965,-3.6521187284325776
2.2778513939614635,27.3866151445268,-0.06700841012783841,1.9769250482825456,-3.4945240192293716
2.2635586089100435,26.97528466183305,-0.0691133522666353,1.9405081202293537,-3.3466707234454183
2.248862955457505,26.57149615638561,-0.07084525204325612,1.9050966935558191,-3.207727324791107
2.233838435642516,26.175043430069703,-0.07224541286140505,1.870643557071849,-3.0769490622292683
2.218550869965894,25.7857298806792,-0.07335045072546613,1.8371045323615482,-2.953667455835211
2.2030588209859054,25.403367892212998,-0.07419287289347379,1.8044382149355926,-2.837281260415711
2.187414403625152,25.027778276546194,-0.0748015781613206,1.7726057437958866,-2.7272486302084826
2.17166399742258,24.658789760915738,-0.07520229043460216,1.7415705955417815,-2.6230803142797146
2.1558488737161863,24.29623851640759,-0.07541793534057663,1.71129839977387,-2.524333731862546
2.1400057488580497,23.93996772325979,-0.07546896807025055,1.6817567730623235,-2.430607801172259
2.1241672729786694,23.589827169325865,-0.07537365935241595,1.6529151691655397,-2.341538415241161
2.108362462480208,23.24567287849284,-0.0751483453948365,1.6247447435299636,-2.256794474861371
2.0926170833059383,22.907366766231476,-0.07480764674106616,1.5972182303877518,-2.176074402459035
2.0769539910717216,22.574776319785045,-0.07436466025147478,1.570309831006831,-2.099103072167803
2.0613934333265806,22.24777430078541,-0.07383112779748491,1.5439951118468538,-2.0256291009379073
2.0459533185104055,21.926238468329608,-0.07321758473751493,1.5182509115417158,-1.9554224535436027
2.0306494555784957,21.61005132076184,-0.07253349080448653,1.4930552557703907,-1.8882723211056682
2.015518406342596,21.299106126984963,-0.07157174001360188,1.4683275421046176,-1.8181510476175333
2.000592497094496,20.993300060000042,-0.07057977663497225,1.4441111910851072,-1.751369338498862
1.9858775051222444,20.69252773763967,-0.06956300405313831,1.4203871171089306,-1.6877273342185173
1.9713781355503446,20.396687688362007,-0.06852622996495447,1.39713716172592,-1.6270394158387975
1.9570981398076404,20.105682162562953,-0.06747372948937252,1.3743440363603239,-1.56913302857512
1.943040421571443,19.819416955466068,-0.06640930133155502,1.351991269324313,-1.5138476156600778
1.929207131561316,19.53780124072916,-0.06533631781251009,1.330063156741481,-1.4610336509494175
1.9155997523962114,19.260747413982305,-0.06425776947420092,1.308544717038067,-1.410551760047096
1.9022191745887707,18.988170945580382,-0.06317630488237704,1.2874216486945278,-1.362271920896128
1.8890657646279285,18.719990241914466,-0.06209426617326223,1.2666802909808796,-1.3160727358049205
1.8761394259932083,18.45612651468169,-0.0610137208240736,1.2463075874265144,-1.2718407677751906
1.8634396538493574,18.19650365756297,-0.05993649006974593,1.2262910517993724,-1.22946993478442
1.8509655840865427,17.941048129802997,-0.05886417433801137,1.206618736390861,-1.1888609563676513
1.8387160372977833,17.68968884622764,-0.057798176031127586,1.18727920242206,-1.1499208474527733
1.8266895582203742,17.44235707327092,-0.05673971994419692,1.1682614924038464,-1.1125624549409299
1.8148844511107076,17.19898633061714,-0.05568987157643728,1.1495551042988519,-1.0767040329985609
1.8032988114711381,16.95951229809434,-0.05464955356232133,1.131149967346857,-1.0422688534477391
1.791930554502611,16.72387272748303,-0.05361956042365065,1.1130364194275066,-1.009184848013762
1.780777440616932,16.49200735892939,-0.052600571820909575,1.0952051858452696,-0.9773842795193091
1.7698370983072007,16.26385784167533,-0.051593164462246925,1.0776473594315064,-0.9468034394080108
1.759107044643529,16.039367658838938,-0.05059782281081535,1.0603543818674623,-0.9173823692414482
1.7485847036332496,15.818482055998142,-0.049614948715657345,1.0433180261401016,-0.8890646040462843
1.7382674226599573,15.60114797334818,-0.04864487007760394,1.0265303800500072,-0.8617969355957905
1.728152487193609,15.387313981219723,-0.04768784864952161,1.009983830697201,-0.8355291938954191
1.7182371339441609,15.176930218759459,-0.04674408705950837,0.9936710498767434,-0.8102140453078474
1.7085267240410922,14.97009993736572,-0.04573600725543049,0.9761411538731469,-0.8146350025253114
1.6990241109341941,14.766938071598045,-0.04476506995312206,0.958733758199966,-0.8213274280439187
1.6897215224443618,14.567419266921913,-0.04383101090242381,0.9414453339536616,-0.8301636590828786
1.6806112525549524,14.371518894526826,-0.04293346423480827,0.9242724983805076,-0.841019807271658
1.6716856817912822,14.179213021306794,-0.042071971609669634,0.9072120084769288,-0.8537754720614374
1.6629372957567308,13.990478381131869,-0.04124599062415438,0.8902607550937707,-0.8683134647659568
1.6543587019745076,13.805292347307361,-0.040454902539874764,0.8734157575205802,-0.8845195420775437
1.6459426451733954,13.623632906122154,-0.039698019375481515,0.8566741585290125,-0.9022821479496377
1.637682021145919,13.44547863139158,-0.038974590410004804,0.8400332198573983,-0.9214921627748757
1.629569889298371,13.27080865990381,-0.03828380813807357,0.823490318121354,-0.9420426588180432
1.6215994840038443,13.099602667681566,-0.03762481371456223,0.8070429411381161,-0.9638286608861235
1.6137642248619146,12.931840846973284,-0.036996701922863744,0.790688684655063,-0.9867469112334064
1.6060577259617426,12.767503883889557,-0.03639852569782214,0.7744252494756778,-1.0106956377081944
1.598473804239179,12.606572936601811,-0.035829300231352106,0.7582504389790523,-1.0355743241490556
1.5910064870128675,12.449029614020656,-0.03528800668590315,0.7421621570319455,-1.0612834820327204
1.5836500187793399,12.29485595487128,-0.034773595538168785,0.7261584062954488,-1.0877244223624551
1.5763988673426907,12.14403440708245,-0.03428498957277363,0.7102372869314997,-1.1147990267648489
1.5692477293505274,11.996547807404266,-0.03382108654307067,0.6943969957178756,-1.1424095167341353
1.5621915353045743,11.852379361167575,-0.03338076151362455,0.6786358255839343,-1.1704582199261107
1.5552254541115196,11.711512622095015,-0.03296286889642021,0.6629521655833029,-1.1988473323579902
1.5483448972374143,11.573931472069745,-0.03256624419029688,0.6473445013240122,-1.227478675315745
1.5415455225272265,11.43962010076319,-0.032189705430538035,0.6318114158812902,-1.2562534457061025
1.534823237749963,11.308562985017193,-0.031832054352924105,0.6163515912234493,-1.2850719585159822
1.5281742039291522,11.180744867869084,-0.03149207727384593,0.6009638101871044,-1.3138333799572104
1.5215948385184466,11.05615073709977,-0.03116854568525447,0.5856469590444412,-1.342435449778486
1.5150818184826684,10.934765803175289,-0.0308602165602515,0.5704000307125219,-1.3707741911194418
1.508632083345835,10.816575476440882,-0.030565832361971745,0.555222128662789,-1.3987436061631415
1.5022428382696,10.701565343413485,-0.03028412074502809,0.5401124715981366,-1.4262353557136587
1.4959115572281818,10.589721142003274,-0.030013793935144042,0.5250703989753107,-1.453138420685139
1.4896359863492856,10.481028735477341,-0.029753547768630848,0.5100953774621346,-1.4793387433393157
1.4834141474948317,10.375474084958427,-0.02950206036902321,0.4951870084322997,-1.5047188459521512
1.477244342160577,10.27304322022842,-0.02925799043340211,0.48034503661538863,-1.5291574244309503
1.471125155780029,10.173722208579964,-0.029019975095628273,0.4655693600365878,-1.5525289142467646
1.4650554625255694,10.07749712142919,-0.028786627327795185,0.4508600413993411,-1.574703025902005
1.4590344307085203,9.98435399836832,-0.028556532834575845,0.43621732108513406,-1.5955442470327776
1.4530615288901871,9.89427880829777,-0.028328246387647683,0.42164163196770815,-1.6149113081683015
1.4471365328279033,9.807257407233418,-0.02810028753886409,0.40713361626422756,-1.6326566091626604
1.4412595333940095,9.723275492335013,-0.027871135641077186,0.3926941446729713,-1.6486256034154136
1.4354309456218042,9.642318551646433,-0.027639224094209987,0.3783243380754126,-1.6626561372615227
1.4296515190512151,9.564371808977072,-0.027402933720923908,0.36402559210898694,-1.6745777424145636
1.4239223495686693,9.48942016328655,-0.027160585160465593,0.34979960494359547,-1.6842108801989106
1.4182448929610498,9.41744812186269,-0.026910430150196944,0.3356484086169621,-1.6913661376598808
1.4126209804335021,9.348439726506761,-0.026650641540733704,0.3215744042966605,-1.6958433777122608
1.4070528363763426,9.28237847186318,-0.026379301860786436,0.3075804018327036,-1.6974308485830847
1.4015430987090076,9.219247214957779,-0.026094390209069094,0.2936696639329984,-1.695904262356305
1.3960948421811623,9.159028074946917,-0.025793767198980428,0.27984595521806116,-1.6910258590466303
1.390711605076119,9.101702322041064,-0.025475157610956492,0.2661135962662531,-1.682543482182715
1.3853974198446515,9.047250254569615,-0.025136130307781498,0.25247752250944694,-1.6701897055907375
1.3801568483057491,8.995651063226301,-0.024774074824620892,0.23894334742687412,-1.6536810706693663
1.374995022196559,8.946882681719117,-0.0243861738343341,0.22551742883202866,-1.6327175213767562
1.3699176900548768,8.900921623407765,-0.023969370372162745,0.21220693603800334,-1.6069821638320607
1.364931271702428,8.85774280413754,-0.02352032822258766,0.1990199141546181,-1.5761415336230353
1.3600429220103727,8.81731935250556,-0.023035383130320403,0.1859653394832917,-1.539846633110079
1.3552606062403014,8.779622410415172,-0.02251048134654912,0.17305315661565818,-1.4977351118813322
1.3505931901756052,8.744620929255639,-0.021941100221987125,0.1602942829989404,-1.4494351170326756
1.346050549665302,8.712281470748955,-0.0213221427332832,0.14770055992187,-1.3945715488596537
1.3416437063723579,8.682568026894579,-0.02064779338999334,0.13528461964363203,-1.3327757337705255
1.3373849998855472,8.655441881039792,-0.019911316008203662,0.12305962659243902,-1.2636998736771583
1.3332883115912246,8.630861542356534,-0.019104762985344432,0.11103883705763104,-1.1870380287061635
1.3293693638371502,8.608782798922352,-0.018218548958221288,0.09923490993458725,-1.1025557552674354
1.325646130497394,8.589158948918389,-0.017240816182312924,0.08765889962697505,-1.0101306393351088
1.3221394143586858,8.571941280948273,-0.01615648037681494,0.07631889056458832,-0.9098053662596062
1.3188736763140443,8.557079872926696,-0.014945786715008113,0.06521832868851911,-0.8018527689716812
1.315878247392379,8.544524743490328,-0.013582107777042869,0.05435433261020882,-0.6868471177320359
1.3131891317297624,8.534227283246558,-0.012028517581209682,0.04371671733044247,-0.5657263036688983
1.3108517617177464,8.526141656087212,-0.010232149199895587,0.03328925561571797,-0.4398157105344864
1.30892546110914,8.520225389617863,-0.008113570882070023,0.023056139330459406,-0.3107715656081266
1.3074917234116874,8.516437324754428,-0.005541073855574568,0.01302066889274444,-0.1804009256912955
1.3066751386883513,8.514727037497945,-0.0022359235095317656,0.0032677811689964427,-0.050347122409963474
