x,y,v_x,v_y,omega
2.375,32.48,0.0,2.871794871794872,-5.795918367346939
2.3737737760131465,31.912112798432783,-0.01226223986853612,2.807077143877251,-5.446860957946673
2.370266257748779,31.35691737973989,-0.022812942775135334,2.7448770430516887,-5.129086380990849
2.364796915272311,30.813926516789188,-0.03188048198954607,2.68503158645533,-4.838930284177804
2.35764287049351,30.28268405969894,-0.039659965798467284,2.6273929844471633,-4.573239985947559
2.349045010733663,29.762762092250735,-0.046318631799999135,2.571826690034882,-4.329292356229976
2.339213121173381,29.253758445942196,-0.05200026380282148,2.5182097730505024,-4.104726585345384
2.328330211854253,28.755294513285826,-0.05682882938845968,2.466429553513207,-3.8974888225357414
2.3165561797791256,28.26701331355485,-0.06091149136281254,2.4163824437965427,-3.7057863449224744
2.3040309193654087,27.788577773123876,-0.06434111277435621,2.367972960513186,-3.528049428523626
2.2908769731098886,27.319669189520862,-0.06719834978084732,2.321112875516963,-3.3628994810006687
2.277201797409819,26.859985853783613,-0.06955340721984665,2.2757204818555206,-3.20912229330499
2.263099705014304,26.409241810055352,-0.07146751673530675,2.231719955427089,-3.065645497428461
2.248653534778343,25.967165734823745,-0.07299418562430245,2.189040796888979,-2.931519496729172
2.233936090676936,25.533499921003333,-0.07418025538976487,2.1476173413151303,-2.8059012760193545
2.219011384965417,25.107999354330698,-0.07506680172542517,2.107388325411233,-2.688040609798299
2.203935714604987,24.690430871397517,-0.0756899018788758,2.068296503920571,-2.577268275427436
2.1887585953462767,24.280572390174978,-0.07608129070822671,2.0302883083048315,-2.4729859487511137
2.1735235739736773,23.87821220514986,-0.07626892301776578,1.9933135419463455,-2.3746575165158292
2.1582689359981253,23.483148340249677,-0.07627745673775455,1.9573251070554933,-2.2818015858785503
2.1430283234187235,23.095187953621345,-0.07612866905626317,1.922278759227828,-2.1939850085905244
2.1278312749528023,22.714146789076857,-0.07584181560295229,1.8881328862170565,-2.110817267856711
2.1127036992788026,22.339848669655055,-0.07543394113704426,1.8548483080009397,-2.031945600776175
2.0976682902816464,21.972125029291,-0.07492014883451853,1.822388095639635,-1.9570507497437
2.0827448919834377,21.61081447904931,-0.07431383414756854,1.7907174067772864,-1.885843253088567
2.0679508197408154,21.255762404778444,-0.07362688827865052,1.7598033359313754,-1.8180601992181256
2.053301143359256,20.906820593389188,-0.07286987553694563,1.7296147779611617,-1.7534623801597857
2.0388089369857045,20.56384688526157,-0.07205218819856889,1.7001223033150137,-1.6918317900865372
2.02448549997078,20.22670485054674,-0.07118218195067423,1.6712980438333171,-1.6329694225148752
2.01034055232118,19.895263487359962,-0.0702672945453245,1.6431155880344446,-1.5766933266602112
1.9963824078759815,19.569396940062482,-0.06931414990666394,1.6155498849403467,-1.5228368891506043
1.9826181279240807,19.248984236007516,-0.06832864961234496,1.588577155609282,-1.4712473121198402
1.969053657623113,18.933909039282696,-0.06731605339732975,1.562174811638944,-1.4217842627764854
1.9556939472736898,18.624059420120183,-0.06628105009690399,1.5363213799861575,-1.3743186730002899
1.9425430602390752,18.31932763876943,-0.06522782024924051,1.5109964335213841,-1.3287316704529313
1.9296042690730966,18.019609942737382,-0.0641600914105479,1.4861805267991062,-1.2849136251904747
1.9168937372554493,17.724809958619964,-0.0629452267659236,1.461819314375045,-1.2387961960767908
1.9044253697206126,17.434834715470775,-0.061738448582444636,1.4379331171168703,-1.1947837489863402
1.8921973755196788,17.149590908959354,-0.06054149342689215,1.414504947997334,-1.152755268335691
1.8802076411490038,16.868988554132095,-0.05935585027985828,1.3915186002752342,-1.112598015463631
1.8684537772524195,16.592940833882484,-0.05818278868598545,1.3689586022208888,-1.0742068724784313
1.8569331600103167,16.321363956161655,-0.05702338373504101,1.3468101749874153,-1.0374837450760523
1.8456429678123625,16.05417701932574,-0.05587853824450192,1.3250591933717322,-1.0023370184149254
1.8345802137410523,15.791301885065248,-0.0547490024686002,1.3036921492331568,-0.9686810607867485
1.8237417743322892,15.532663058406044,-0.05363539161903121,1.282696117358899,-0.9364357703976506
1.8131244150255936,15.278187574311662,-0.05253820144792464,1.2620587235849263,-0.9055261610804068
1.8027248126694495,15.027804890453382,-0.05145782211351738,1.2417681149978774,-0.8758819832049944
1.7925395754058333,14.78144678574768,-0.050394550522643855,1.2218129320591513,-0.8474373764492931
1.7825652602214532,14.539047264291145,-0.049348601321156295,1.2021822825061976,-0.820130551440737
1.7727983884210115,14.30054246435067,-0.048320116683262256,1.1828657168985623,-0.7939034975889012
1.7632354592493713,14.06587057209206,-0.04730917503313782,1.1638532056875377,-0.7687017147032755
1.753872961864386,13.834971739753456,-0.04631579881671616,1.1451351176984819,-0.7444739662341133
1.7447073858399165,13.607788007991196,-0.04533996142797927,1.1267021999241107,-0.7211720521909446
1.735735230358903,13.38426323214524,-0.04438159338215349,1.1085455585354314,-0.6987505999863356
1.7269530122389163,13.164343012189239,-0.043440587817715745,1.0906566410245833,-0.6771668716245723
1.718357272917157,12.947974626146706,-0.042516805399876144,1.0730272194007475,-0.656380585808592
1.7099445845081638,12.735106966769976,-0.041610078690055945,1.0556493743665523,-0.636353753675823
1.7017115550352893,12.52569048129251,-0.0407202160386909,1.0385154804081136,-0.6170505269965026
1.6936548329261862,12.319677114077994,-0.03984700505234081,1.0216181917370502,-0.5984370577781557
1.6857711108529048,12.117020252001534,-0.03899021568047277,1.0049504290275586,-0.5804813683186849
1.6780571289886255,11.91767467240918,-0.03814960296231889,0.9885053668959684,-0.5631532308392081
1.6705168535675758,11.721779869412522,-0.03725315124817868,0.970442663070615,-0.5830572057060458
1.6631514534868557,11.529486205534266,-0.03640084955902187,0.9524939757119469,-0.6047548394123515
1.6559521967229762,11.340771188084414,-0.03559171807977512,0.9346561987865835,-0.6281304548717733
1.6489105526565586,11.155612933099519,-0.03482472258440099,0.9169263510623797,-0.6530711258783503
1.6420182023598673,10.97399014084893,-0.034098780382511136,0.8993015714435126,-0.6794664210313471
1.6352670477481577,10.795882072231183,-0.03341276573458536,0.8817791147339503,-0.7072081541099018
1.6286492196973774,10.621268525976173,-0.03276551477321816,0.8643563478161576,-0.7361901398494887
1.6221570852236176,10.450129816571089,-0.03215582996437909,0.8470307462346893,-0.7663079540877503
1.615783253813237,10.282446752829905,-0.03158248413942577,0.8297998911771345,-0.7974586972552438
1.6095205829867423,10.11820061702742,-0.031044224125521817,0.8126614668477222,-0.8295407601870282
1.603362183174274,9.957373144519465,-0.03053977399916218,0.7956132582318328,-0.8624535912236423
1.5973014219758908,9.799946503771011,-0.030067837984670026,0.7786531492526964,-0.8960974635546565
1.5913319278757458,9.645903276713266,-0.02962710301677822,0.7617791213247616,-0.9303732417343415
1.5854475934756962,9.49522643934963,-0.029216240983719912,0.7449892523116152,-0.9651821462666758
1.5796425783108639,9.347899342528471,-0.028833910664602037,0.7282817158999785,-1.0004255151154502
1.573911311307184,9.203905692797946,-0.02847875937219672,0.7116547814052635,-1.0360045609440791
1.5682484929390013,9.063229533254571,-0.028149424309632288,0.6951068140284907,-1.0718201228282285
1.5626490971433609,8.925855224292807,-0.02784453364676954,0.6786362755891333,-1.1077724111118388
1.557108373046756,8.79176742415752,-0.02756270731928055,0.6622417257637333,-1.1437607439927446
1.5516218465597706,8.660951069194542,-0.027302557550574418,0.6459218238660309,-1.179683274327028
1.5461853218953427,8.533391353686845,-0.027062689093702703,0.6296753312109573,-1.2154367050306218
1.5407948830672538,8.40907370915452,-0.026841699187188706,0.6135011141122924,-1.2509159913315915
1.535446895427003,8.287983782986068,-0.02663817721531824,0.5973981475722094,-1.2860140279861525
1.5301380072994952,8.1701074162558,-0.0264507040597588,0.5813655197304827,-1.3206213194150946
1.5248651517809808,8.055430620567552,-0.026277851125388118,0.5654024371519877,-1.3546256305444209
1.5196255487665564,7.943939553748006,-0.026118179018854895,0.5495082310434874,-1.3879116159445863
1.5144167072793109,7.835620494193179,-0.025970235853598877,0.5336823645047787,-1.4203604246572992
1.5092364281789759,7.730459813649169,-0.02583255514975162,0.517924440935326,-1.4518492778789447
1.504082807334857,7.628443948182056,-0.02570365329143858,0.5022342137357936,-1.4822510164383005
1.498954239355972,7.52955936706201,-0.025582026497410544,0.48661159746467453,-1.5114336147683793
1.4938494219808778,7.433792539252163,-0.02546614725353374,0.47105668063379474,-1.5392596578361601
1.4887673612407915,7.3411298971534755,-0.025354460147327874,0.4555697403530944,-1.5655857772722084
1.4837073775225291,7.251557797211667,-0.02524537703529538,0.44015125906497304,-1.5902620427536913
1.4786691126726965,7.165062476940996,-0.0251372714630307,0.42480194364172935,-1.6131313045670757
1.4736525383018158,7.081630007861207,-0.02502847224577724,0.40952274715614806,-1.6340284832518313
1.4686579654669505,7.001246243778123,-0.024917256102875568,0.3943148936746834,-1.652779802363207
1.463686055934366,6.923896763764251,-0.024801839222967186,0.37917990646403155,-1.6692019607764588
1.4587378352503437,6.8495668091135045,-0.02468036761725773,0.3641196400434322,-1.68310124171032
1.4538147078791468,6.778241213453786,-0.024550906094711045,0.3491363165537594,-1.6942725569514772
1.4489184747032318,6.709904325103874,-0.024411425664439768,0.3342325669453368,-1.702498426869089
1.444051353223304,6.644539920659199,-0.024259789134837086,0.3194114775014116,-1.707547900084625
1.4392160008465,6.582131108688991,-0.024093734633203176,0.3046766422006839,-1.7091754216327693
1.4344155417122604,6.52266022233286,-0.0239108567091927,0.2900322213606235,-1.7071196658689027
1.4296535975810212,6.466108699510457,-0.02370858460319995,0.27548300686340305,-1.7011023613342005
1.4249343234061511,6.412456949423881,-0.02348415714549899,0.2610344940023635,-1.6908271508446078
1.4202624483330488,6.361684204070663,-0.023234593585524807,0.24669295952981815,-1.6759785534756517
1.4156433230340846,6.313768353644381,-0.022956659404116897,0.23246554473300302,-1.65622112910507
1.4110829745148767,6.2686857650550785,-0.02264682578796371,0.2183603411600203,-1.6311989953779913
1.406588169849206,6.226411083465525,-0.02230122086874372,0.20438647473550564,-1.6005359179499041
1.4021664907697793,6.18691701787996,-0.02191556992552178,0.19055418112016004,-1.5638362968578987
1.3978264217456773,6.150174113685839,-0.021485120315499307,0.1768748608210317,-1.5206875174954664
1.393577455253579,6.116150517990182,-0.021004544605483805,0.16336109613554878,-1.4706643405168294
1.3894302196241175,6.084811748101419,-0.02046781168912966,0.1500266027520709,-1.4133362912490275
1.3853966374820945,6.0561204802309945,-0.019868009731099746,0.13688607595216515,-1.3482793964096025
1.3814901269880369,6.0300363851890175,-0.019197095209475754,0.12395487446759855,-1.2750941149197308
1.3777258647670285,6.006516051225049,-0.018445527000610324,0.11124846517208996,-1.1934318955000986
1.3741211400535207,5.985513051328223,-0.01760172013446715,0.0987815337961653,-1.1030333472882745
1.37069584646521,5.966978231509188,-0.016651215748640966,0.08656666439418931,-1.003781197374142
1.3674731844317414,5.9508603115776495,-0.015575404586044974,0.07461253492118161,-0.8957702698201249
1.3644806891911152,5.937106884955931,-0.014349547820215913,0.06292173129602138,-0.7793931767782214
1.3617517668029875,5.925665846150945,-0.012939676061060567,0.05148865675381921,-0.6554319538201315
1.3593280401954861,5.916487104115358,-0.011297590013952806,0.040298763602045366,-0.5251302679866365
1.3572630683223728,5.909524059332778,-0.00935212871718095,0.029331684223772254,-0.390199409884756
1.355628769001314,5.904733530852564,-0.006990864493405474,0.018573600578364748,-0.25269475523829993
1.3545290309145734,5.902070674135004,-0.004006516374000501,0.00805496659724978,-0.1147082373600832
