x,y,v_x,v_y,omega
2.375,32.48,0.0,2.564102564102564,-3.836734693877551
2.3744271406231285,32.02294042886121,-0.00636510418746143,2.5143371152172573,-3.6459139088960555
2.372776466367736,31.574701034831335,-0.01197572087245732,2.4661005962258207,-3.4688726489657418
2.3701762524602574,31.135013677474355,-0.01691554476618992,2.419314485518421,-3.304292781862684
2.366740616134215,30.70362384713236,-0.021258192189841492,2.3739058516148384,-3.1510071114321394
2.362571209855477,30.28028970678236,-0.025068544240578916,2.329806818940727,-3.0079795460832397
2.357758690613454,29.86478122410009,-0.02840389178189611,2.2869540997511733,-2.8742881974836587
2.3523839980409167,29.45687938273845,-0.03131491457963084,2.24528858204481,-2.749110928247635
2.3465194688311097,29.05637546349068,-0.033846521084891515,2.204754965152615,-2.63171295458606
2.340229810570418,28.663070387373548,-0.036038570700574174,2.1653014361488805,-2.5214361797392333
2.3335729545127473,28.27677411379391,-0.03792649660687743,2.1268793814026674,-2.417689990298036
2.326600803842719,27.897305087899902,-0.03954184417121182,2.0894431285307555,-2.319943293110189
2.3193598914939524,27.524489732002223,-0.04091273748175007,2.0529497147767657,-2.2277176075779583
2.3118919595149166,27.158161976610604,-0.042064284507538637,2.0173586784634447,-2.140581058498659
2.304234470235094,26.79816282718813,-0.04301892971271266,1.982631870675151,-2.0581431395199146
2.2964210580198134,26.44433996320005,-0.04379676156818128,1.9487332847479406,-1.9800501378307862
2.288481929165628,26.09654736643837,-0.044415781256099546,1.915628901492989,-1.9059811277194145
2.2804442164409715,25.75464497595077,-0.04489213790675414,1.8832865483692138,-1.8356444547586452
2.272332293887535,25.418498367201792,-0.045240334909202665,1.851675771063869,-1.7687746441608139
2.2641680567405835,25.087978453353067,-0.04547341116804017,1.8207677161442006,-1.7051296766948025
2.255971170679987,24.76296120677465,-0.04560310061636384,1.7905350236159572,-1.6444885838237953
2.2477592940706246,24.443327399095814,-0.045639972820994586,1.7609517283711544,-1.5866493206769865
2.239548276376355,24.12896235827548,-0.045593557115336095,1.7319931696325133,-1.531426881337242
2.2313523355239635,23.819755741323746,-0.04547245235567961,1.7036359076090206,-1.4786516258924602
2.223184216642209,23.515601321438716,-0.045284424108262486,1.6758576466690753,-1.428167792911016
2.2150553342978823,23.21639678844096,-0.04503649082869785,1.6486371644170723,-1.3798321745843891
2.206975900088588,22.922043561491904,-0.04473500038568343,1.6219542461280387,-1.3335129348343953
2.1989550372247404,22.632446613175457,-0.04438569810151079,1.5957896240546874,-1.2890885532923502
2.1910008835360735,22.347514304104934,-0.043993787328125734,1.5701249211733577,-1.2464468802926587
2.1831206841664548,22.067158227291053,-0.04356398344541298,1.5449425989808845,-1.2054842899416747
2.1753208750714434,21.79129306157327,-0.04310056205471305,1.5202259089944274,-1.1661049199725895
2.1676071583026877,21.519836433476044,-0.04260740204257593,1.4959588476414687,-1.128219988519007
2.159987186699486,21.252710606889153,-0.04205894910410339,1.4721058922128651,-1.090226274986934
2.152467186224237,20.989840449094828,-0.04149661173199882,1.4486736388352148,-1.0538420356042697
2.1450494468733887,20.731151499377525,-0.040922714388538374,1.425648024690331,-1.0189810024648727
2.1377358613552557,20.47657177464852,-0.04033934692405231,1.4030155834097229,-0.9855624030697299
2.130527965280945,20.226031664971444,-0.039748387234957334,1.3807634130022344,-0.9535105542276503
2.123426973481311,19.979463834675457,-0.03915152164986023,1.3588791458421172,-0.9227544899912076
2.116433812837155,19.736803128699044,-0.03855026328520808,1.3373509205624545,-0.893227620442701
2.1095491519688725,19.49798648383432,-0.03794596858459831,1.3161673557122522,-0.8648674184736964
2.102773428095396,19.26295284456593,-0.03733985223180643,1.2953175250476248,-0.8376151319934305
2.096106871339956,19.03164308322119,-0.03673300060641538,1.2747909343384187,-0.8114155192605341
2.0895495267314743,18.803999924168394,-0.03612638393227014,1.2545774995815027,-0.7862166052630996
2.0831012741248434,18.57996787181918,-0.035520867252517054,1.2346675265209026,-0.7619694572774925
2.076761846240577,18.359493142207825,-0.03491722035044427,1.215051691383073,-0.7386279779194893
2.070530845004014,18.14252359793648,-0.03431612672247955,1.1957210227429635,-0.7161487141648899
2.0644077563461423,17.92900868628972,-0.03371819169831695,1.176666884443244,-0.6944906809630059
2.0583919636119186,17.718899380335266,-0.03312394979305504,1.1578809594951396,-0.6736151981973243
2.0524827597074884,17.512148122840166,-0.0325338713672796,1.139355234894893,-0.6534857398649586
2.0466793581047567,17.30870877284308,-0.03194836866307621,1.1210819872949316,-0.6340677944517441
2.0409809028101593,17.108536554733924,-0.03136780127689408,1.1030537694734521,-0.6153287355743525
2.0353864773940877,16.91158800970178,-0.030792481123897417,1.0852633975503623,-0.5972377020457919
2.0298951131680814,16.717820949421125,-0.030222676942843255,1.0677039389013956,-0.579765486597143
2.024505796588527,16.52719441185468,-0.029658618385535587,1.050368700725763,-0.5628844325573037
2.0192174759580883,16.339668619059026,-0.029100499730454362,1.0332512192259538,-0.5465683378546635
2.014029067489291,16.155204936886175,-0.028548483256183175,1.0163452493612921,-0.5307923657607463
2.0089394607886306,15.973765836481096,-0.028002702306707154,0.9996447551395905,-0.51553296184656
2.003947523814054,15.795314857481294,-0.027463264077475135,0.9831439004137682,-0.5007677766682609
1.9990558461385932,15.620045979503399,-0.026888710094314882,0.9642880771184105,-0.5369019824808136
1.9942638568903865,15.44816190801986,-0.026355614885758234,0.94553493936537,-0.5742116237175856
1.9895642136897047,15.279644387898895,-0.025862642899596992,0.9268819508675599,-0.6125935176429992
1.9849498164596109,15.114475611415585,-0.025408437434777165,0.908326676724782,-0.6519458126124503
1.9804138109566174,14.952638200214022,-0.024991623709594193,0.8898667810703585,-0.6921677628070305
1.9759495917795886,14.794115187660346,-0.024610811590726648,0.8715000250815849,-0.7331595033881682
1.9715508049162764,14.638890001520895,-0.024264598001630625,0.853224265356735,-0.7748218250727475
1.967211349883767,14.486946446898997,-0.023951569026253207,0.8350374526643516,-0.8170559470992937
1.9629253815164693,14.338268689362568,-0.023670301721497096,0.8169376310737535,-0.8597632875173065
1.9586873114530927,14.192841238192806,-0.02341936564935599,0.7989229374791608,-0.9028452296842273
1.9544918093723103,14.050648929681657,-0.023197324137116015,0.780991601533607,-0.9462028837971502
1.9503338040255387,13.911676910402466,-0.023002735271455833,0.7631419460129627,-0.9897368422184831
1.9462084841144394,13.775910620374152,-0.0228341526296488,0.7453723876349798,-1.0333469272754705
1.94211129906042,13.643335776034299,-0.02269012574834403,0.7276814383633873,-1.0769319301218234
1.9380379597135897,13.51393835293064,-0.02256920032754692,0.7100677072327979,-1.1203893391446234
1.9339844390493148,13.387704568033392,-0.0224699181643969,0.6925299027366438,-1.1636150562800225
1.929946972901789,13.264620861562605,-0.022390816808112224,0.6750668358276558,-1.2065030994658368
1.9259220607858996,13.144673878215134,-0.022330428923993752,0.6576774235886876,-1.2489452893066864
1.9219064668611856,13.027850447664452,-0.02228728135060384,0.6403606936411177,-1.2908309178566397
1.9178972210949217,12.914137564193556,-0.02225989383010793,0.6231157893688207,-1.3320463972342313
1.9138916206853618,12.80352236530604,-0.022246777387223866,0.6059419760480086,-1.372474885574324
1.9098872318110638,12.69599210914286,-0.02224643232719866,0.5888386479873231,-1.4119958875900314
1.9058818917780278,12.591534150512118,-0.022257345817645737,0.5718053367987042,-1.4504848267658959
1.901873711643284,12.490135915315811,-0.02227798901283881,0.5548417209380496,-1.4878125859318185
1.8978610794016424,12.391784873130558,-0.022306813672069048,0.5379476366758633,-1.5238450126784722
1.8938426638317332,12.296468507668322,-0.02234224821581206,0.5211230906823099,-1.5584423857739662
1.8898174191083976,12.20417428480743,-0.022382693154582994,0.504368274438733,-1.591458838436586
1.8857845903011063,12.114889617843225,-0.02242651581531866,0.48768358071910645,-1.622741734022586
1.881743719892643,12.028601829560671,-0.022472044278720613,0.47106962242040057,-1.6521309894214027
1.8776946554690395,11.945298110677374,-0.022517560427983217,0.45452725406068223,-1.6794583412435877
1.8736375587510234,11.864965474144196,-0.02256129199441721,0.43805759630795654,-1.704546549784237
1.869572916159381,11.787590704720891,-0.022601403468276406,0.42166206395099703,-1.727208535812745
1.865501551132158,11.713160303165566,-0.022635985723091355,0.40534239777482967,-1.7472464455747854
1.861424638441032,11.641660424288759,-0.022663044178307067,0.3891007008563552,-1.764450640134545
1.8573437207882526,11.573076808025494,-0.02268048529702043,0.3729394798465855,-1.7785986065374644
1.8532607280051703,11.507394702572835,-0.02268610118167209,0.356861691849638,-1.7894537905299635
1.849177999219854,11.444598778528128,-0.022677551988510153,0.34087079753597704,-1.7967643541582734
1.8450983084163486,11.384673032848731,-0.02265234582821454,0.32497082112401054,-1.8002618670996402
1.841024893874298,11.327600681344904,-0.022607815750127977,0.3091664178073799,-1.7996599489487197
1.836961492058617,11.27336403832685,-0.02254109331299377,0.2934629490598934,-1.7946528921854115
1.8329123766302753,11.2219443819749,-0.02244907811302587,0.2778665659617664,-1.7849143140684585
1.8288824033796325,11.17332180402244,-0.02232840244966954,0.26238430017668724,-1.7700959129626026
1.824877062056768,11.127475042485631,-0.022175390026601956,0.24702416134340552,-1.749826444575833
1.8209025363104452,11.084381296523222,-0.02198600715476353,0.2317952382389087,-1.7237110919804814
1.8169657732836613,11.044016023185957,-0.021755804253946593,0.21670779884182112,-1.6913314883330608
1.8130745649058508,11.006352717003438,-0.021479844388393763,0.20177338096396188,-1.652246774539671
1.8092376436626467,10.97136267533099,-0.02115261386942949,0.18700485984102097,-1.60599625188756
1.8054647967664357,10.939014755538668,-0.020767907199579938,0.17241647118479062,-1.552104443407771
1.8017670044464649,10.90927513502901,-0.02031867413343052,0.15802375670030488,-1.4900897340583847
1.7981566109402274,10.882107092463986,-0.01979680926920948,0.1438433829110474,-1.4194782464904663
1.7946475413767082,10.85747083935518,-0.01919285254766817,0.12989276274236727,-1.3398252418491552
1.7912555851976073,10.835323446147399,-0.01849554944234183,0.11618938401075178,-1.2507470824020734
1.7879987788260565,10.815618926220317,-0.017691188019333084,0.10274972629015794,-1.15196749531195
1.7848979397361866,10.798308562685644,-0.01676257964588636,0.08958764631732892,-1.043382078463663
1.781977435243359,10.783341578667066,-0.015687470274421075,0.07671217611130207,-0.9251436344248433
1.7792663193525908,10.77066624215471,-0.014436039623005435,0.06412489624821503,-0.7977659482842793
1.7768000538632809,10.760231419971898,-0.01296691025821501,0.05181757244968852,-0.66223187221783
1.7746231833335195,10.75198837673971,-0.011220540072467526,0.03977179679683825,-0.520070306318957
1.7727936924845533,10.745892127426057,-0.009107136027156546,0.02796430668820329,-0.3733389516269235
1.7713909291073087,10.741900590632952,-0.006479123720003251,0.01638610212407078,-0.2244322459045768
1.770534418209299,10.739966339763068,-0.003037664035661049,0.005105574207983939,-0.07565761886062838
