x,y,v_x,v_y,omega
2.375,32.48,0.0,2.923076923076923,-3.224489795918368
2.3742144594433006,31.873346662442675,-0.00748133863523373,2.854573910802333,-3.018803004200219
2.3719743184944657,31.28078824854309,-0.013853337067954444,2.7888395549080003,-2.8327329957677447
2.3684960131498443,30.701762001847055,-0.01927338049986993,2.725696127911374,-2.663854310828816
2.3639654665726706,30.135740859728553,-0.02387468213988003,2.6649814160743652,-2.5100957225687495
2.3585427373869527,29.582230381038105,-0.027770357724099477,2.606546952406095,-2.3696814712979273
2.352365891297512,29.040766017977557,-0.031056747889618222,2.550256505313402,-2.24108334874896
2.3455542380869034,28.510910683308147,-0.03381613983046587,2.4959847772524086,-2.1229814306415578
2.3382110477194193,27.99225257256682,-0.036119006526524805,2.443616277426914,-2.0142317427066034
2.3304258370951407,27.484403207745682,-0.03802585656184236,2.3930443399172567,-1.913839515683032
2.3222763015037162,26.986995674309163,-0.039588768118390426,2.3441702642400712,-1.8209369685557129
2.3138299509543176,26.499683027797122,-0.040852665685405964,2.2969025596841233,-1.7347647782917375
2.305145500496217,26.02213684982327,-0.041856386296507106,2.2511562781621044,-1.6546565644663245
2.2962740547795897,25.554045936201664,-0.04263357290946496,2.2068524229960125,-1.5800258501681368
2.2872601199686287,25.095115102352647,-0.0432134252901669,2.1639174231851204,-1.510355065145868
2.278142470346888,24.64506409315447,-0.043621333012122745,2.1222826644165638,-1.4451862398267432
2.268954892267399,24.203626586097087,-0.04387941060205776,2.0818840694632574,-1.3841131045257133
2.259726824278585,23.77054927802044,-0.04400695119616912,2.0426617217429164,-1.3267743606120623
2.250483909129849,23.34559104692982,-0.044020812125124806,2.0045595267391865,-1.272847932468645
2.2412484707925726,22.928522181413204,-0.04393574346798557,1.9675249067524077,-1.2220460429690383
2.232039927516113,22.519123671070254,-0.04376466868877531,1.9315085250851862,-1.174110982612759
2.2228751501889814,22.117186552124657,-0.04351892490295443,1.8964640363014624,-1.128811464723375
2.213768773824675,21.722511303050112,-0.04320846904281862,1.862347859646597,-1.085939477264845
2.204733468785027,21.33490728561219,-0.04284205514430721,1.8291189730955042,-1.0453075566817331
2.1957801773474737,20.954192227226244,-0.04242738711810275,1.7967387258182657,-1.0067464213614878
2.1869183203808085,20.58019174096691,-0.041971250659661355,1.7651706671277836,-0.9701029123609662
2.1781559781879523,20.212738879946468,-0.04147962736754252,1.7343803902097659,-0.9352381973401769
2.1695000489806513,19.851673723114942,-0.04095779365437058,1.7043353891381154,-0.9020262005277035
2.160956387950616,19.496842989830782,-0.04041040663167972,1.675004927853858,-0.8703522272642963
2.152529929478817,19.148099680812706,-0.03984157881402791,1.6463599199373813,-0.8401117564428688
2.1442247946665898,18.805302743315046,-0.03925494320718223,1.6183728181355512,-0.8112093781536115
2.1360443860682654,18.4683167585752,-0.03865371011019382,1.5910175127201296,-0.7835578571891475
2.1279914712464847,18.13701164976488,-0.03804071676390841,1.5642692378543313,-0.7570773058780272
2.120068256550966,17.81126240884078,-0.03741847081245774,1.53810448523236,-0.7316944520862928
2.112276452333209,17.490948840836303,-0.036789188404273386,1.5125009243340886,-0.7073419902307388
2.104617330648474,17.17595532426718,-0.03615482764082555,1.487437328705159,-0.6839580048448969
2.0971021996040293,16.866171724451128,-0.035417848972931654,1.4628826695429469,-0.6586870699585013
2.0897409770134434,16.56149197122493,-0.034689032842175206,1.4388292659446518,-0.6346104535723487
2.082531862414433,16.261812728241416,-0.03396920143411235,1.4152587624697834,-0.6116572633565633
2.0754728972122014,15.9670344230699,-0.033259038587141396,1.3921536677351107,-0.589761612538257
2.0685619919519116,15.677061071096304,-0.032559106748953744,1.3694973034420137,-0.5688622106516344
2.061796950242716,15.391800109751966,-0.03186986191005291,1.3472737569802662,-0.5489019921883227
2.0551754897319885,15.111162242350755,-0.031191666763541025,1.325467837316997,-0.5298277792355762
2.048695260479466,14.835061290872282,-0.030524802308102575,1.3040650339065512,-0.5115899746345212
2.0423538610383725,14.563414057082074,-0.02986947808326086,1.2830514783811457,-0.49414228258008125
2.0361488525134304,14.296140191427643,-0.029225841201905273,1.2624139088039104,-0.47744145392604337
2.0300777708331843,14.033162069193267,-0.028593984324245106,1.2421396362853974,-0.4614470537591718
2.024138137445714,13.77440467343617,-0.02797395269927986,1.2222165137821992,-0.44612124907078005
2.0183274686219494,13.519795484263266,-0.02736575038419568,1.202632906912116,-0.43142861458736864
2.0126432835290693,13.269264374040862,-0.026769345738470625,1.1833776666345937,-0.4173359550278356
2.0070831112173804,13.022743508160136,-0.0261846762776139,1.164440103658037,-0.4038121422368256
2.001644496647312,12.780167251009079,-0.025611652961133973,1.1458099644472695,-0.39082796580498186
1.9963250058684594,12.541472076827045,-0.025050163980319944,1.1274774087149686,-0.3783559959297895
1.9911222304496528,12.306596485141473,-0.02450007810355242,1.1094329882904854,-0.36637045739759194
1.9860337912476318,12.075480920507818,-0.023961247629981423,1.091667627268145,-0.35484711368016136
1.9810573415918629,11.848067696293434,-0.023433510996389063,1.0741726033450276,-0.3437631602396118
1.97619056995418,11.624300922264336,-0.022916695076780694,1.0569395302654154,-0.33309712622492316
1.9714312021641076,11.404126435750428,-0.022410617209622903,1.0399603412956302,-0.3228287838231897
1.9667770032238208,11.187491736180196,-0.021915086983586327,1.0232272736589565,-0.3129390646000342
1.9622257787705903,10.974345922790096,-0.021429907809083222,1.0067328538657863,-0.3034099822274257
1.9577753762291628,10.764639635326883,-0.02095487829975144,0.9904698838790906,-0.29422456105426326
1.9534274751162004,10.558464045696901,-0.02045370372846025,0.9731071602159815,-0.3117735308155841
1.9491816160242112,10.355922624338369,-0.019983049528579624,0.9558587574843102,-0.3312172223585481
1.9450314079998596,10.1569916975305,-0.019542741179530945,0.9387214978287285,-0.35244555750785966
1.9409705064339102,9.961648245948584,-0.01913251182951028,0.9216923267609547,-0.3753514103794189
1.9369926315859927,9.769869879292784,-0.018752010531610255,0.904768308056176,-0.39983037172840546
1.933091585449471,9.58163481194654,-0.0184008098162151,0.8879466190509194,-0.4257805205187833
1.929261267090818,9.396921839581992,-0.018078412647146536,0.8712245463257113,-0.4531022018097169
1.9254956865883366,9.215710316633182,-0.017784258805057872,0.8545994817582109,-0.4816978100766756
1.921788977686331,9.037980134560414,-0.017517730737851043,0.838068918934813,-0.5114715771012417
1.918135409272845,8.863711700831601,-0.017278158914396994,0.8216304499110132,-0.5423293635738582
1.914529395781806,8.692885918548068,-0.017064826714546507,0.8052817623131238,-0.5741784535579033
1.910965506613822,8.525484166643682,-0.016876974885300166,0.7890206367762543,-0.6069273509614498
1.9074384746639117,8.361488280587011,-0.016713805590037625,0.7728449447158605,-0.6404855771546882
1.9039432040390971,8.200880533516418,-0.01657448607486306,0.7567526464326302,-0.6747634688560189
1.9004747770440313,8.04364361773792,-0.016458151973381994,0.7407417895530718,-0.7096719753879284
1.8970284605086274,7.889760626514704,-0.016363910268560163,0.7248105078109135,-0.7451224543745778
1.8935997115280196,7.739215036075933,-0.01629084192770415,0.7089570201773666,-0.781026464916069
1.8901841826820887,7.591990687770405,-0.01623800422402108,0.6931796303514869,-0.8172955572290624
1.8867777267992247,7.448071770287839,-0.01620443275563551,0.6774767266253418,-0.8538410576891643
1.8833764013269974,7.307442801867214,-0.016189143170339086,0.6618467821425139,-0.8905738481465347
1.8799764723709338,7.170088612407117,-0.01619113260169427,0.6462883555727081,-0.9274041383116776
1.8765744184617212,7.035994325387836,-0.01620938081937749,0.6308000922299529,-0.9642412299224253
1.873166934110838,6.9051453395086355,-0.016242851093796577,0.6153807256671953,-1.0009932713047256
1.8697509332149276,6.777527309936044,-0.016290490772017354,0.6000290797860632,-1.0375670008278755
1.8663235523701869,6.653126129050236,-0.016351231558845145,0.5847440715073439,-1.0738674776281831
1.862882154159692,6.531927906566146,-0.016423989493486463,0.56952471405542,-1.1097977978324807
1.859424330478982,6.4139189488938655,-0.01650766460851598,0.5543701209186794,-1.1452587943533008
1.8559479059684345,6.299085737588822,-0.01660114025384074,0.5392795105579347,-1.1801487181497874
1.8524509416250687,6.18741490672587,-0.016703282063927717,0.5242522119463666,-1.2143628986516761
1.8489317386714808,6.078893219012546,-0.016812936541674182,0.509287671037657,-1.2477933808274575
1.8453888427657827,5.973507540434813,-0.016928929226876544,0.4943854582740667,-1.2803285361422643
1.8418210486437845,5.871244813203365,-0.017050062411204575,0.4795452772635272,-1.3118526443972072
1.8382274052933525,5.7720920267393545,-0.017175112354814108,0.4647669747746622,-1.3422454431724262
1.8346072217711247,5.676036186404769,-0.017302825952116088,0.45005055222138024,-1.3713816413158737
1.8309600737836615,5.583064279643889,-0.01743191678562797,0.43539617883462467,-1.3991303926369272
1.8272858111689745,5.493163239157674,-0.0175610604971046,0.4208042067483816,-1.4253547256912997
1.8235845664303993,5.406319902681751,-0.017688889394087217,0.4062751882604132,-1.4499109253013398
1.8198567644932948,5.322520968880021,-0.01781398619738537,0.3918098955656098,-1.4726478612737666
1.8161031338764146,5.241752948798993,-0.017934876820520546,0.37740934330132114,-1.4934062596999016
1.8123247194944399,5.164002112251989,-0.018050022055429278,0.36307481428919786,-1.5120179123173796
1.8085228973366,5.089254428416492,-0.018157808019237033,0.34880788890601355,-1.5283048197734341
1.8046993912992133,5.017495499832059,-0.018256535193969567,0.3346104785647926,-1.5420782653984964
1.8008562924881615,4.9487104888801845,-0.018344405863667246,0.3204848638339927,-1.5531378174789454
1.7969960813518713,4.882884035712728,-0.018419509720049423,0.3064337377608194,-1.5612702603056077
1.7931216530577894,4.820000166474344,-0.01847980736644501,0.2924602549856949,-1.5662484579000941
1.7892363465876495,4.760042190542364,-0.018523111396790613,0.2785680872236248,-1.567830159909198
1.7853439781020204,4.702992585393648,-0.01854706465682194,0.26476148562129626,-1.56575676761717
1.7814488792170788,4.648832867617735,-0.01854911519976442,0.2510453503397744,-1.5597520906797564
1.7775559409529884,4.597543448554493,-0.018526487315380508,0.23742530740539516,-1.5495211439596597
1.7736706642640627,4.549103473082301,-0.018476147817246578,0.22390779232975874,-1.5347490615474935
1.7697992182625653,4.503490640282937,-0.018394766482730456,0.21050013909277115,-1.5151002457669178
1.7659485075269914,4.460681005158769,-0.018278669094162307,0.19721067161359057,-1.4902179285983888
1.7621262502849437,4.420648761425721,-0.018123780830101896,0.18404879251067077,-1.459724410004413
1.75834106985065,4.38336600687559,-0.0179255566393605,0.17102506034771753,-1.4232223641220536
1.7546026025937969,4.348802495226213,-0.01767889342590958,0.15815124107490897,-1.380297786787768
1.7509216271116597,4.316925382237773,-0.017378015927776783,0.1454403111959456,-1.330525418189083
1.7473102214888026,4.28769897983647,-0.01701632333752933,0.1329063783402632,-1.273477838718992
1.7437819590843509,4.261084540922177,-0.016586175752486432,0.12056446846252096,-1.2087399291887355
1.7403521590521787,4.2370401104315185,-0.016078586458677158,0.10843010763899429,-1.1359310147206285
1.7370382171843666,4.215520495842863,-0.0154827646633441,0.09651860272913682,-1.0547377186579527
1.7338600579359484,4.196477432217105,-0.014785418654923645,0.08484390799238277,-0.9649611205377334
1.730840773222283,4.179860039180518,-0.01396967385617492,0.07341697807033672,-0.8665816606164112
1.728007553497651,4.1656156779158735,-0.013013371140321474,0.06224360540248079,-0.7598430847661437
1.7253930816627052,4.153691286587222,-0.01188636062106579,0.05132202629895229,-0.6453502362467962
1.7230376723862078,4.14403514528766,-0.010546108678910229,0.04064122417308093,-0.5241615118306506
1.720992665206627,4.136598696242817,-0.008930150174241234,0.030182100063529747,-0.3978338951201349
1.71932618052062,4.13133733932845,-0.006941132549634732,0.019926061025675713,-0.26835363354064395
1.7181345964486703,4.1282074091990815,-0.004407287183218932,0.009882797349276483,-0.1378798505264599
1.7175768596156846,4.127148336140245,-0.0009044921785476764,0.00020361273487403374,-0.008303304454567756
