x,y,v_x,v_y,omega
2.375,32.48,0.0,2.2564102564102564,-7.510204081632653
2.3736929398153883,32.01093713374372,-0.01244819223439544,2.2108551365067184,-7.125935613424135
2.369929092767232,31.55127776483285,-0.02339797012899985,2.1668531388348597,-6.770481807703971
2.3640050978650096,31.100705844159187,-0.0330210289397869,2.124308010438107,-6.440948923440188
2.3561838449394994,30.658924583154697,-0.04146709416030621,2.0831325705570367,-6.134797794951383
2.3466987483524546,30.225654673696244,-0.04886715904964452,2.0432475195234696,-5.849792639161252
2.33575739893189,29.800632737473173,-0.05533616876525968,2.004580444505802,-5.58395843192092
2.32354469887527,29.38360996747309,-0.06097526034540542,1.9670649840663703,-5.335545211443984
2.310225563999562,28.974350931365198,-0.06587364323276305,1.9306401217231186,-5.1029980221835
2.2959472618631533,28.57263251216031,-0.07011018663779692,1.8952495849900661,-4.884931482240265
2.280841441824032,28.17824296596006,-0.07375476611573914,1.8608413312028327,-4.680108164194011
2.2650259032180937,27.790981080139986,-0.07686941108367447,1.8273671051787868,-4.48742013921899
2.2486061399418373,27.41065541814468,-0.07950928678543483,1.7947820566812724,-4.3058731591343085
2.231676693359202,27.03708363935842,-0.08172353781109346,1.7630444079497718,-4.134573049154652
2.2143223402877314,26.670091884369985,-0.08355601525053007,1.7321151633686793,-3.972713961822191
2.1966191386004654,26.309514217463725,-0.08504590558057333,1.7019578547861764,-3.819568204584822
2.1786353495123745,25.955192119411024,-0.08622827621077249,1.6725383171443282,-3.674477403245941
2.1604322527536266,25.60697402466034,-0.08713455006301606,1.6438244900050527,-3.536844803701726
2.1420648684496633,25.264714897873063,-0.08779291949853789,1.6157862413023387,-3.4061285470301725
2.123582597538322,24.928275845459407,-0.0882287082285225,1.5883952102562666,-3.2818357796604083
2.105029790884772,24.597523758360325,-0.08846468847195323,1.5616246668778648,-3.1635174822383143
2.0864462558482364,24.272330982818843,-0.08852135949505056,1.5354493858981286,-3.0507639188567675
2.0678677078643153,23.95257501630438,-0.08841719273277192,1.5098455332872502,-2.9432006232747456
2.0493261735961004,23.638138226109678,-0.08816884791689289,1.4847905638051504,-2.840484851192762
2.030879125277518,23.32891908088844,-0.0875173265458014,1.460153676397116,-2.7351694375959688
2.012577467972479,23.024819804618666,-0.08678417159742251,1.4360299071245388,-2.6348676816976533
1.9944372926444505,22.72573469250892,-0.08597940295523115,1.4123997320159165,-2.5392792094635563
1.976472691444176,22.431562036650433,-0.08511203704738386,1.389244609493491,-2.4481251140679885
1.9586959577963776,22.142203926438366,-0.08419018816974246,1.3665469163357067,-2.3611461717744486
1.9411177663477233,21.857566061898858,-0.08322115896029793,1.344289888802494,-2.2781012268308762
1.9237473349227936,21.57755757889035,-0.08221152127712929,1.3224575684213855,-2.1987657273738956
1.9065925703883186,21.302090885247175,-0.08116718857501261,1.3010347519898073,-2.1229303964723103
1.8896602001102134,21.03108150702138,-0.0800934807402755,1.2800069453987117,-2.0504000242959712
1.8729558904987285,20.76444794405727,-0.07899518222624714,1.2593603209261508,-1.980992369012328
1.8564843539708236,20.502111534202854,-0.07787659422999044,1.239081677687332,-1.9145371554234345
1.8402494455125953,20.243996325524783,-0.07674158156266025,1.2191584049609414,-1.850875161589649
1.8242542498956804,19.99002895594911,-0.07559361478890952,1.1995784481407161,-1.7898573847670924
1.808501160487761,19.740138539800206,-0.07443580814365673,1.180330277086941,-1.7313442789348006
1.79299195049671,19.49425656075518,-0.07327095367587588,1.161402856675225,-1.6752050570220696
1.7777278373988827,19.252316770771486,-0.07210155201771784,1.142785619359961,-1.6213170516818096
1.7627095412231375,19.014255094581983,-0.070929840132237,1.1244684395876463,-1.5695651291047084
1.7479373372921414,18.780009539384626,-0.06975781635343986,1.1064416099110201,-1.5198411509427385
1.733411103960285,18.54952010938372,-0.06858726299757381,1.088695818669022,-1.4720434799185576
1.7191303658321784,18.322728724866913,-0.06741976679391737,1.0712221291100978,-1.4260765251478595
1.7050943328964068,18.099579145526356,-0.06625673735628855,1.0540119598475652,-1.3818503236018658
1.691301935965274,17.880016897755056,-0.06509942389259679,1.0370570665457701,-1.3392801544930175
1.6777518587720448,17.66398920566955,-0.06394893032863272,1.0203495247447374,-1.2982861836839066
1.6644425670421628,17.451444925628753,-0.06280622900357628,1.003881713739086,-1.2587931355021849
1.6513723348235856,17.242334484035553,-0.061672173078111445,0.987646301434236,-1.220729989596664
1.6385500514461029,17.036776949659046,-0.06044481146934188,0.9700445021515476,-1.2153835087496836
1.6259817362689524,16.834902384447425,-0.059253428313043824,0.952570404625799,-1.2125579261283306
1.6136598434586042,16.63668436548034,-0.05809793178551054,0.9352202522035921,-1.2121132937046049
1.6015768588570376,16.442097241714492,-0.05697811203893416,0.9179904503282765,-1.2139139640940024
1.589725323695328,16.251116100704504,-0.055893651405919086,0.900877559290649,-1.2178282690220044
1.5780978562486982,16.063716736785622,-0.05484413380008008,0.8838782875558608,-1.223728210613254
1.5666871715957678,15.879875620600277,-0.053829053370686004,0.8669894856379101,-1.231489164173233
1.5554860996330588,15.699569869856152,-0.052847822464637303,0.8502081404966204,-1.240989591193272
1.5444876014850757,15.52277722120829,-0.05189977894472451,0.8335313704353883,-1.2521107613616833
1.5336847844404273,15.349476003162042,-0.05098419290907073,0.8169564204812465,-1.264736482407095
1.5230709155354223,15.179645109897155,-0.05010027285288182,0.8004806582319771,-1.2787528366350938
1.5126394338983107,15.013263975916193,-0.04924717131008359,0.7841015701581462,-1.2940479230462896
1.5023839619597976,14.850312551422725,-0.04842399000908917,0.7678167583510607,-1.3105116039431337
1.4922983156285958,14.690771278336229,-0.04762978457378472,0.7516239377107954,-1.3280352549443455
1.482376513524577,14.534621066851571,-0.04686356879782414,0.735520933571648,-1.3465115173297422
1.472612785356472,14.381843272451153,-0.04612431851745914,0.7195056797656812,-1.3658340516345902
1.4630015795260742,14.23241967327727,-0.04541097510537785,0.7035762171284541,-1.3858972914012777
1.4535375700364468,14.086332447771042,-0.04472244860535938,0.6877306924546632,-1.4065961959770592
1.444215662777764,13.9435641524822,-0.044057620524952344,0.6719673579152615,-1.4278260012196955
1.435031001261057,13.804097699951164,-0.0434153463008292,0.6562845709517474,-1.4494819669378831
1.4259789718673321,13.667916336561113,-0.04279445744893251,0.640680794667777,-1.4714591198502502
1.41705520867725,13.535003620252969,-0.04219376340899089,0.6251545987431073,-1.4936519907952812
1.4082555979448124,13.405343397990421,-0.04161205309041673,0.6097046609001968,-1.515954344864701
1.3995762822773008,13.278919782855137,-0.04104809612397863,0.594329768959654,-1.5382589030646423
1.391013664583084,13.155717130644017,-0.040500643820942143,0.5790288235272001,-1.5604570540324638
1.3825644118488358,13.035720015830652,-0.039968429838562365,0.5638008413620128,-1.5824385542528236
1.3742254588082616,12.918913206741788,-0.03945017054785885,0.5486449594843142,-1.6040912151252718
1.365994011565607,12.805281639786593,-0.03894456509647128,0.5335604400889868,-1.6253005751385168
1.3578675512390932,12.694810392561347,-0.03845029515604271,0.5185466763419325,-1.645949555305642
1.349843837692013,12.587484655635013,-0.03796602433995936,0.5036031991469527,-1.6659180959129418
1.3419209134226167,12.483289702801343,-0.0374903972733392,0.48872968498322145,-1.6850827725372344
1.3340971076881676,12.382210859560768,-0.03702203829284142,0.4739259649270293,-1.703316389198944
1.3263710409437648,12.284233469569852,-0.03655954974909018,0.4591920349864649,-1.7204875464502223
1.318741629682797,12.189342858767397,-0.03610150987917416,0.4445280678940634,-1.7364601821619736
1.3112080917733622,12.097524296853909,-0.03564647021068025,0.42993442652012337,-1.7510930827892375
1.303769952393792,12.00876295576504,-0.03519295245189294,0.41541167908815135,-1.7642393629865942
1.2964270506807747,11.923043864739483,-0.03473944481493824,0.40096061639333297,-1.775745911649805
1.2891795472157086,11.840351861537531,-0.03428439770950045,0.3865822712443132,-1.7854528028262804
1.28202793248915,11.760671539318373,-0.033826218733915385,0.3722779403667237,-1.7931926705339174
1.27497303649996,11.683987188632564,-0.03336326687741593,0.3580492090219503,-1.7987900474505134
1.2680160396655429,11.610282733931868,-0.03289384583131881,0.34389797860373217,-1.802060668816272
1.2611584852431301,11.539541663943705,-0.03241619628689752,0.3298264974740076,-1.8028107449127169
1.2544022934904486,11.47174695520437,-0.03192848707197389,0.31583739528154703,-1.8008362083962417
1.2477497778287203,11.406880987998708,-0.03142880494448674,0.3019337209628424,-1.7959219469255299
1.241203663313882,11.344925453920851,-0.03091514281587779,0.2881189845405607,-1.7878410374179352
1.234767107776175,11.285861254261604,-0.030385386114666655,0.2743972026903697,-1.776354006579155
1.2284437260582846,11.22966838845877,-0.02983729691286167,0.26077294781282945,-1.761208154014617
1.222237617874638,11.176325831940396,-0.02926849531234413,0.24725139998121062,-1.7421369905534505
1.2161533999392256,11.125811402881624,-0.028676437405869764,0.23383840057851915,-1.7188598671945718
1.2101962431814857,11.078101617732575,-0.028058388858320557,0.22054050560290892,-1.6910819017822112
1.2043719161123183,11.033171535928098,-0.027411392752796637,0.20736503539212486,-1.6584943544714545
1.1986868357502751,10.990994595059856,-0.026732229742853653,0.19432011573399993,-1.6207756636898532
1.1931481280252356,10.951542439115912,-0.02601736763847588,0.18141470277975041,-1.577593437361297
1.1877637003260737,10.914784744361413,-0.025262896163066196,0.16865858059641564,-1.528607806629103
1.1825423299766336,10.880689050293402,-0.02446444049826832,0.15606231528941428,-1.4734766989060797
1.1774937741043183,10.849220607158141,-0.023617043999972363,0.1436371431416436,-1.4118637803593184
1.1726289089011972,10.820342257105356,-0.02271500555356294,0.13139476212298498,-1.3434500556901317
1.167959910108706,10.794014373443883,-0.021751649613020237,0.11934698703388924,-1.2679503800177336
1.163500492333005,10.77019489164677,-0.020718995869845908,0.10750522055765938,-1.185136381620904
1.1592662334594628,10.748839475954092,-0.019607279116270398,0.09587969080116983,-1.0948673872342511
1.1552750233269253,10.729901874158447,-0.018404245955515666,0.0844784215383264,-0.9971306151897896
1.1515476949083552,10.713334514597445,-0.01709411993562924,0.07330595523311847,-0.8920906611215714
1.1481089247278597,10.699089381811518,-0.015656072259565404,0.062361976061428584,-0.7801453686096493
1.144988533824944,10.687119150061708,-0.014061936339631964,0.0516402310796341,-0.6619796401425248
1.142223399764418,10.677378424376158,-0.012272673760615731,0.04112858497322159,-0.5386002698373746
1.139860364825248,10.669824687134867,-0.010232420898144133,0.030811769705750114,-0.4113253247128611
1.1379610196795051,10.664418064503579,-0.007856580489885061,0.020679874401762513,-0.2816966343648622
1.1366110549393178,10.661117809929909,-0.005000226559518806,0.010751121537942242,-0.15129150979867367
1.1359470445798765,10.65986734531431,-0.0013236816256370614,0.0011580652772667111,-0.02146250065154484
