x,y,v_x,v_y,omega
2.375,32.48,0.0,2.2051282051282053,-4.571428571428571
2.374440596522114,32.08665176284796,-0.006215594198737602,2.165407763227786,-4.369958771954778
2.3728222954771345,31.70035706436179,-0.01176552852325008,2.126755553285183,-4.181087728278288
2.370259026971664,31.32092817108456,-0.016715232648650137,2.08912103868406,-4.003755515249795
2.3668535742394528,30.9481861398687,-0.021123131042580998,2.0524570859366094,-3.8370102244518387
2.36269875907108,30.581960233770026,-0.025041481939336366,2.016719648493083,-3.679995206348327
2.357878486384409,30.22208739140842,-0.028517103468120555,1.9818674888581216,-3.5319380260596853
2.352468666712099,29.86841174341162,-0.03159200400199652,1.94786193332854,-3.392140873823327
2.3465380325714253,29.520784170493975,-0.034303930894375875,1.9146666546452717,-3.2599722148843573
2.3401488623430127,29.17906189849807,-0.036686849421317065,1.8822474786425794,-3.1348594990762013
2.333357623330013,28.84310812637447,-0.038771361834240306,1.8505722116196037,-3.016282779376059
2.3262155440275656,28.512791683617216,-0.0405850748596139,1.8196104856832467,-2.9037691125594893
2.3187691242480533,28.187986714129032,-0.04215292269052369,1.7893336197410088,-2.796887634750205
2.311060590575782,27.868572383876476,-0.0434974514458247,1.7597144941762906,-2.695245220965495
2.3031283036291526,27.554432610022776,-0.04463907018339267,1.7307274375314834,-2.5984826513271875
2.295007122759628,27.24545580950587,-0.045596272811325014,1.7023481237674982,-2.506271217945837
2.2867287330909774,26.941534665268364,-0.04638583461812401,1.6745534788714425,-2.4183097159940385
2.2783219391796727,26.642565908552047,-0.047022986618597065,1.647321595754297,-2.3343217704867048
2.269812929041765,26.348450115847037,-0.047521570469266174,1.6206316565235959,-2.2540534570428052
2.2612255118296862,26.059091519239583,-0.047894176331608085,1.5944638613370063,-2.1772711806263274
2.252581332043047,25.774397829036182,-0.04815226574216215,1.5687993631452073,-2.1037597811266298
2.243900062811392,25.494280067658345,-0.04830628127622585,1.543620207719685,-2.0333208387812647
2.2351995804862264,25.218652413904373,-0.048365744558944934,1.5189092784355596,-1.9657711559837892
2.2264961225179136,24.947432056764264,-0.048339343977863304,1.4946502453433947,-1.9009413950508498
2.2178045830958277,24.680542539495928,-0.04823331626753965,1.4707888354158998,-1.83688328169713
2.2091373881220844,24.417910007325077,-0.04806885010738621,1.4473504109269104,-1.7755461147023248
2.2005045401398657,24.159459608830872,-0.04785168302837741,1.4243206834531361,-1.716783578916742
2.1919150542915045,23.905119008869153,-0.04758704862008099,1.4016859827881858,-1.6604587178361243
2.183377044935172,23.65481828038289,-0.04727972200583138,1.3794332226147081,-1.6064432381379101
2.1748978044696723,23.40848980218329,-0.04693406094416805,1.357549868491986,-1.5546168729689471
2.1664838751138653,23.166068162301485,-0.04655404300924195,1.336023907972525,-1.5048667984232207
2.1581411143103244,22.927490066542866,-0.046143299252324826,1.3148438226787582,-1.4570870982315764
2.149874754354427,22.69269425190498,-0.04570514470208852,1.2939985621866579,-1.411178272201571
2.141689456789245,22.461621404546246,-0.04524260602215896,1.2734775195770398,-1.3670467844029444
2.1335893620523585,22.234214082016805,-0.04475844660990915,1.2532705085278737,-1.3246046475000712
2.1255781348123715,22.010416639484404,-0.04425518938994987,1.2333677418321356,-1.2837690399934667
2.117659005389684,21.790175159708284,-0.04373513752879712,1.2137598112358245,-1.244461953453437
2.109834807617495,21.573437386532078,-0.04320039327330428,1.1944376684998375,-1.2066098671150762
2.102108013464414,21.36015266168331,-0.04265287509426357,1.1753926075975645,-1.1701434474591315
2.0944807647091306,21.15027186468246,-0.042094333297776114,1.1566162479674498,-1.1349972706314009
2.0869549019298055,20.943747355678212,-0.04152636425027675,1.1381005187464277,-1.101109565757461
2.07953199104594,20.740532921038575,-0.0409504233482281,1.1198376439161823,-1.0684219773923673
2.072213347628077,20.54058372153915,-0.0403678368502518,1.101820128299649,-1.0368793455089744
2.0650000591705657,20.34385624300067,-0.03977981267765208,1.084040744350147,-1.0064295015757765
2.05789300550449,20.150308249237952,-0.03918745027874293,1.0664925196800492,-0.9770230794075471
2.050892877511536,19.959898737191548,-0.038591749642967854,1.0491687252800037,-0.948613339591188
2.0440001942848554,19.772587894121834,-0.03799361954237457,1.0320628643834726,-0.921156006396522
2.0372153188697,19.58833705675319,-0.03739388507046219,1.01516866193477,-0.8946091161785632
2.030538472704609,19.407108672263092,-0.036793294541657834,0.9984800546219074,-0.8689328763651829
2.023972990285916,19.229095498159356,-0.036156510110486505,0.979444102086257,-0.8941017219534001
2.017519067680265,19.054498883204417,-0.035553741063415634,0.9605182863019774,-0.9207477437902205
2.011170656455021,18.88329925460023,-0.034984161439294885,0.9416998093000531,-0.948757258350007
2.0049218618205713,18.715477532786693,-0.03444689005459359,0.9229859886281429,-0.9780184136990238
1.9987669521066451,18.551015110928688,-0.03394099565569494,0.9043742542385882,-1.0084209461016662
1.992700367352822,18.38989383492695,-0.033465501609004994,0.8858621457807269,-1.0398559387997914
1.986716727093929,18.232095983880026,-0.03301939015647568,0.8674473102962028,-1.072215581945501
1.9808108374163413,18.077604250924658,-0.03260160626116499,0.8491275003189914,-1.1053929326515264
1.9749776973570246,17.926401724381293,-0.03221106106457778,0.83090057238504,-1.139281674099356
1.9692125047134872,17.778471869130257,-0.03184663497472357,0.8127644859598049,-1.1737758726130734
1.963510661329666,17.633798508142274,-0.03150718040106805,0.7947173027955938,-1.2087697315661108
1.9578677779200864,17.49236580408456,-0.031191524149818153,0.7767571867345504,-1.2441573409382944
1.952279678492481,17.354158240920484,-0.030898469490240412,0.7588824039774016,-1.279832421281075
1.9467424044273647,17.21916060541667,-0.03062679789994163,0.7410913238428034,-1.3156880607791208
1.9412522182718908,17.087357968466556,-0.030375270494211456,0.723382420047332,-1.3516164440158056
1.9358056073046672,16.958735666133517,-0.030142629141607508,0.7057542725419721,-1.387508570957871
1.9303992869280795,16.83327928030947,-0.02992759726492259,0.6882055699474389,-1.4232539645699727
1.9250302039451237,16.710974618876783,-0.02972888032347478,0.6707351126379555,-1.4587403653522708
1.9196955397787772,16.59180769525155,-0.0295451659692657,0.6533418165313106,-1.4938534109631043
1.9143927136936105,16.475764707175028,-0.029375123865917476,0.6360247176522883,-1.5284762989437106
1.9091193860816942,16.362832014607086,-0.02921740515537706,0.6187829775470451,-1.562489430402778
1.9038734618779298,16.252996116560443,-0.029070641553114722,0.6016158896378958,-1.595770032345713
1.8986530941738402,16.146243626697103,-0.028933444047881743,0.5845228866214344,-1.6281917561478823
1.8934566881036041,16.042561247488635,-0.02880440117696297,0.5675035490281952,-1.6596242494748459
1.8882829050818808,15.941935742718957,-0.028682076842184958,0.550557615079347,-1.689932698749259
1.8831306674797774,15.844353908082226,-0.028565007625630075,0.5336849919954586,-1.7189773390594443
1.8779991638333446,15.74980253959854,-0.028451699556955208,0.5168857689343895,-1.7466129282073897
1.8728878546883523,15.658268399536045,-0.0283406242762946,0.5001602317600293,-1.7726881814172921
1.867796479195985,15.569738179489246,-0.028230214527785978,0.483508879871073,-1.7970451630890731
1.8627250625867098,15.484198460219414,-0.028118858908606725,0.4669324453492781,-1.8195186319126442
1.8576739246641232,15.40163566781322,-0.028004895786798302,0.45043191471951927,-1.8399353356984702
1.8526436894774116,15.322036025660061,-0.02788660628777318,0.43400855364893154,-1.8581132524859736
1.8476352963504694,15.245385501686293,-0.027762206233808435,0.41766393494849285,-1.8738607749458498
1.8426500124682073,15.171669750216111,-0.027629836902437865,0.40139997027574076,-1.8869758359124449
1.8376894472467025,15.10087404775409,-0.02748755444761367,0.3852189459689342,-1.8972449742340534
1.8327555687443642,15.032983221904942,-0.02733331780058956,0.369123563466023,-1.9044423422480385
1.827850722407264,14.967981572563819,-0.027164974833857648,0.35311698476868997,-1.9083286594085498
1.8229776524846604,14.905852784429467,-0.0269802465284058,0.3372028833907724,-1.9086501213924068
1.818139526502597,14.846579829819564,-0.026776708827854077,0.321385501163711,-1.9051372810586957
1.813339963247333,14.790144860712918,-0.026551771786191083,0.30566971113235886,-1.8975039279002193
1.8085830647907895,14.736529088924016,-0.026302655508736308,0.29006108652210333,-1.8854460074665909
1.803873453194063,14.685712653357086,-0.026026362232667435,0.2745659753326546,-1.8686406436025758
1.7992163126629372,14.637674473428795,-0.02571964366873279,0.2591915794261287,-1.846745356988948
1.7946174381177027,14.592392088049717,-0.025378962389426194,0.24394603589695654,-1.8193976172945585
1.7900832914043543,14.549841480102483,-0.025000445536667776,0.22883849685010693,-1.7862149287150688
1.7856210667562769,14.50999688727764,-0.024579828330857725,0.21387920120369988,-1.746795737354693
1.7812387676800152,14.4728306016133,-0.024112383627605243,0.1990795284001065,-1.700721574046174
1.7769452982894518,14.43831276239574,-0.023592831823098848,0.18445201846168285,-1.6475610211309089
1.772750573415689,14.406411150579185,-0.023015222329820954,0.17001033505556837,-1.586876332555041
1.7686656538397707,14.377090998048871,-0.022372772958160307,0.15576913750346755,-1.518233859994662
1.7647029161522827,14.35031483244845,-0.0216576457917081,0.1417438136123037,-1.4412198535857401
1.7608762716990056,14.326042388466071,-0.020860625911370254,0.12795000841412457,-1.3554636996984997
1.7572014568520236,14.304230629625206,-0.01997065016620684,0.11440286759549159,-1.2606711512509778
1.7536964290202102,14.28483393984763,-0.018974103520610228,0.10111590771089549,-1.1566703744666758
1.7503819217529597,14.267804557703183,-0.017853755004395587,0.08809944944963158,-1.043473165671073
1.74728224165125,14.253093328904281,-0.01658713501459936,0.0753586483159384,-0.9213514670068992
1.7444264358813246,14.240650824082604,-0.015144040206793616,0.06289140525825769,-0.7909236525034447
1.741850035893068,14.230428771906688,-0.013482626329392754,0.05068695225189831,-0.6532339729717316
1.739597732274603,14.222381531012573,-0.01154296943132771,0.03872683546050365,-0.5097916030059432
1.737727709725792,14.216466863614777,-0.009235058888794466,0.026991691181677213,-0.3625181682406955
1.736319625903036,14.212644262628597,-0.006410316919604916,0.015481653109202138,-0.21354837734676824
1.7354943122325368,14.21086538644153,-0.00275983497483155,0.0042836378582065265,-0.06486086579443084
