x,y,v_x,v_y,omega
2.375,32.48,0.0,3.7435897435897436,-6.408163265306122
2.3733586802189826,31.778086502983047,-0.017277050326498518,3.644973382904452,-5.940084749576864
2.368708550523083,31.09446414369478,-0.03167168331455181,3.5510514517089127,-5.5236601725049175
2.3615531853540186,30.428275070885903,-0.04364795004401843,3.4614651041739943,-5.151553088774915
2.352315695042373,29.77872592969011,-0.05358879007856702,3.375894276834327,-4.817656395161622
2.3413526515981435,29.145081032688577,-0.06181166722911105,3.294052007392369,-4.516857756477127
2.3289653598960913,28.526656508258103,-0.06858087700301929,3.215679828717855,-4.24485509989315
2.315409032365718,27.92281524547082,-0.07411730752722695,3.1405439900956797,-3.9980103486639136
2.3009002959832965,27.332962495655703,-0.07860623334036486,3.068432323747637,-3.7732326371966267
2.2856233640334587,26.756542020888876,-0.08220357665793139,2.999151621166335,-3.5678844496809337
2.269735132519681,26.193032702257803,-0.08504096559235799,2.9325254170555035,-3.379705721988634
2.2533694058473963,25.641945537874488,-0.08722984148432138,2.8683921027688353,-3.206752120337585
2.236640413960304,25.1028209737729,-0.08886480995875522,2.806603308826823,-3.0473445820070353
2.2196457502442475,24.575226521057125,-0.09002638705236894,2.747022509233963,-2.900027857250804
2.2024688338764453,24.05875462071083,-0.09078325892449703,2.6895238102007646,-2.7635362863479433
2.185180980167687,23.55302072386972,-0.09119414853611447,2.633990893389843,-2.6367654232214597
2.1678431465425163,23.057661560487375,-0.09130936330778754,2.580316089582186,-2.518748407223909
2.150507409169302,22.572333573478144,-0.09117208272604661,2.5283995631465928,-2.408636209287751
2.1332182151642622,22.096711498813825,-0.0908194331164759,2.4781485912146537,-2.305681053609257
2.1160134471992693,21.63048707484468,-0.09028338756766217,2.4294769242500363,-2.2092224531657427
2.0989253308193336,21.17336786643292,-0.08959152169481716,2.3823042169264177,-2.1186754054474086
2.0819812094950834,20.72507619142292,-0.08876765013940059,2.3365555200209243,-2.033520380423092
2.0652042081442152,20.285348138599858,-0.08783236408026045,2.2921608254850128,-1.9532948009541067
2.0486138023552956,19.853932667664544,-0.08680348632941935,2.249054658044604,-1.877585770432255
2.032226307681356,19.430590782922508,-0.08569645760678696,2.2071757076610314,-1.8060238462688274
2.016055301016428,19.01509477338506,-0.08452466518192918,2.1664664979963213,-1.7382776932545219
2.000111984127726,18.607227512838598,-0.08329972312019862,2.1268730867032803,-1.6740494794935994
1.9844054978119006,18.206781814178576,-0.08203171178322657,2.088344793928482,-1.613070900952037
1.9689431938133977,17.81355983294538,-0.08072938293785803,2.0508339558946718,-1.5550997397166637
1.9537308705365177,17.427372515556122,-0.07940033576613886,2.0142957008343583,-1.4999168766808324
1.938772977660038,17.048039088212192,-0.07805116819680738,1.978687744891194,-1.4473236922167225
1.9240727939916429,16.675386582886986,-0.07668760725998304,1.943970205900456,-1.3971397989926904
1.9096325822525386,16.30924939717123,-0.075314621572692,1.9101054332127831,-1.3492010598669872
1.8954537239389337,15.94946888508142,-0.07393651857051825,1.877057851943107,-1.3033578510735464
1.8815368369490408,15.595892976226406,-0.07255702869151137,1.8447938202149345,-1.259473536981997
1.867881878277477,15.248375820983316,-0.07117937837757989,1.81328149813336,-1.2174231277808654
1.8544882337515913,14.906777459561244,-0.0698063534738512,1.7824907273621522,-1.1770920956766335
1.8413547965066095,14.570963513032947,-0.06844035436806067,1.7523929203041342,-1.138375328765295
1.82848003566051,14.240804894594774,-0.06708344401193407,1.7229609579924223,-1.1011762047340454
1.8158620564485464,13.916177539475456,-0.06573738979820966,1.6941690958951328,-1.0654057690841479
1.8034986529058372,13.596962152058044,-0.06440370012504715,1.6659928769197339,-1.030982004709985
1.791387354039787,13.283043968907865,-0.06308365635968866,1.638409050976872,-0.9978291814881056
1.779525464308501,12.974312536514848,-0.06177834081174433,1.61139550052856,-0.9658772760766201
1.7679100991135495,12.67066150266233,-0.06048866124037847,1.5849311716032015,-0.9350614534433539
1.756538215922797,12.371988420427979,-0.05921537234649196,1.5589960098110098,-0.9053216027670064
1.7454066415592058,12.078194563906749,-0.05795909463867742,1.5335709009387726,-0.8766019213192715
1.7345120961227187,11.78918475482195,-0.056720331008554316,1.5086376157433308,-0.8488505407625723
1.7238512139528694,11.504867199259408,-0.05549948130564746,1.4841787585991926,-0.8220191910086684
1.7134294767602816,11.22515519755444,-0.054203015458436234,1.4601581014530978,-0.7935147402818382
1.7032512323407005,10.949965022448769,-0.05293639948452061,1.4365805838697507,-0.7662556576480866
1.6933108499804987,10.679213926198031,-0.05169920430707868,1.4134309556117064,-0.7401732236250828
1.683602784534019,10.412821995166148,-0.05049095828744494,1.3906946341976025,-0.7152032286935416
1.674121583760647,10.150712026454343,-0.04931115511646992,1.368357668031932,-0.6912856300544425
1.6648618942604645,9.892809411305475,-0.04815926067492567,1.346406701956169,-0.6683642380050577
1.6558184661921578,9.639042024841189,-0.04703471899146113,1.3248289450363304,-0.646386429082138
1.6469861569339905,9.389340121723013,-0.04593695741029846,1.303612140418133,-0.6253028834230558
1.6383599338286756,9.143636237359225,-0.04486539106670213,1.2827445370954103,-0.6050673440631705
1.6299348761355237,8.901865094307357,-0.04381942675594855,1.2622148634505683,-0.5856363961245461
1.6217061762979805,8.66396351354797,-0.042798466270821886,1.242012302437711,-0.5669692640612036
1.613669140621285,8.429870330328853,-0.04180190927334202,1.2221264682898165,-0.5490276253126042
1.6058191894432783,8.199526314300417,-0.0408291557583078,1.2025473846410837,-0.5317754388828952
1.5981518568711195,7.972874093682897,-0.03987960815915182,1.1832654639644116,-0.5151787875110875
1.5906627901476609,7.749858083224236,-0.03895267314041416,1.1642714882320164,-0.4992057322289259
1.5833477487033267,7.530424415724315,-0.038047763115733074,1.145556590714506,-0.48382617822065926
1.5762026029424079,7.3145208769166,-0.03716429752551897,1.1271122388403902,-0.4690117510038462
1.5692233328065717,7.102096843512573,-0.036301703904334764,1.108930218044086,-0.45473568204420634
1.5624060261530444,6.893103224227463,-0.03545941876437593,1.0910026165360183,-0.44097270300158886
1.5557468769801939,6.68749240361786,-0.03463688831826026,1.073321810933483,-0.4276989478795028
1.5492421835291124,6.4852181885731,-0.0338335690615444,1.055880452695575,-0.41489186241830245
1.5428883462861371,6.286235757312596,-0.033048928232931374,1.038671455309719,-0.40253012013290507
1.5366818659080508,6.090501610750955,-0.03228244416797822,1.0216879821812328,-0.3905935444505917
1.530619341088872,5.897973526101552,-0.03153360656021809,1.0049234351809102,-0.3790630364536683
1.5246974663846666,5.70861051259752,-0.03080191664194387,0.9883714438088818,-0.3679205077761346
1.518919542457891,5.522577944394598,-0.030018335218854157,0.9698661162218637,-0.40028471370942503
1.5132858664108944,5.340051240349791,-0.029283517907424866,0.9514676105655709,-0.4340525129760283
1.5077873144312903,5.161010366681783,-0.028595976614724294,0.9331731648871556,-0.4691176534319025
1.5024150472443454,4.985435804082222,-0.027954204300484786,0.9149801256345343,-0.5053758100099022
1.4971605133840153,4.813308527434305,-0.027356678439832544,0.8968859443435473,-0.5427243499701969
1.4920154518414348,4.644609986124877,-0.026801864113644255,0.8788881747030634,-0.5810621012575443
1.4869718941593115,4.4793220848787065,-0.026288216750813557,0.8609844699934814,-0.6202891229608649
1.482022166036309,4.317427165044123,-0.02581418454394814,0.8431725808968656,-0.6603064768611936
1.4771588885016858,4.1589079862593366,-0.025378210557351295,0.8254503536798486,-0.7010159990366823
1.4723749787171005,4.003747708428168,-0.024978734543545756,0.8078157287534881,-0.7423200704675277
1.467663650459669,3.8519298739329244,-0.024614194482048886,0.7902667396175034,-0.78412138554905
1.463018414337974,3.7034383900102803,-0.02428302785158128,0.7728015121998105,-0.8263227173770997
1.4584330777908596,3.5582575112137214,-0.0239836726443601,0.7554182646060558,-0.8688266786158579
1.4539017449174316,3.416371821882837,-0.023714568128566756,0.7381153072979985,-0.911535476693174
1.4494188161857844,3.2777662185357315,-0.02347415536245699,0.7208910437241692,-0.9543506619919724
1.4449789880675685,3.142425892095961,-0.023260877460869415,0.7037439714313227,-0.9971728676169834
1.4405772526456408,3.010336309859351,-0.02307317961205226,0.6866726836908954,-1.0399015392130209
1.4362088972427214,2.881483197099012,-0.022909508839731807,0.669675871681089,-1.0824346531930564
1.4318695041202427,2.7558525181984272,-0.02276831350214894,0.6527523272724399,-1.1246684216001475
1.4275549502984854,2.6334304571926133,-0.022648042516348832,0.6359009464729525,-1.1664969816755308
1.4232614075516663,2.5142033975858524,-0.022547144292273606,0.6191207335982308,-1.207812068034552
1.4189853426349734,2.398157901300962,-0.022464065357123753,0.6024108062427268,-1.2485026651612656
1.4147235178046806,2.2852806865995596,-0.022397248645959707,0.5857704011404489,-1.2884546377203892
1.410472991697508,2.1755586047945563,-0.022345131429540453,0.5691988810174858,-1.3275503359510115
1.40623112064144,2.068978615555192,-0.022306142844862424,0.5526957425547804,-1.3656681731497997
1.4019955604773484,1.9655277605806738,-0.02227870098767957,0.536260625598041,-1.4026821719730629
1.3977642689791805,1.865193135390438,-0.022261209519351045,0.519893323772861,-1.438461475988946
1.393535508970249,1.7679618589467125,-0.022252053732558112,0.5035937966873943,-1.4728698225974148
1.3893078522445523,1.6738210407878036,-0.02224959601161776,0.48736218393271663,-1.5057649731137965
1.385080184415201,1.5827577453075428,-0.022252170613134847,0.47119882112267614,-1.5369980954933837
1.3808517108272218,1.494758952767043,-0.022258077681381994,0.4551042582509888,-1.5664130948785673
1.3766219636895058,1.409811516568233,-0.02226557639983974,0.4390792806838386,-1.593845886904528
1.3723908106008011,1.327902116253881,-0.022272877165472594,0.42312493315143457,-1.6191236085471727
1.368158464667839,1.249017205625087,-0.02227813265517962,0.4072425471516619,-1.6420637613006768
1.3639254964403726,1.1731429552835984,-0.02227942763393971,0.39143377223243436,-1.6624732817241337
1.3596928479187236,1.10026518881239,-0.02227476733078691,0.3757006116750392,-1.6801475350325372
1.35546184892511,1.0303693117034705,-0.02226206418093514,0.3600454631557097,-1.694869228623527
1.3512342361715426,0.9634402320275655,-0.02223912269872259,0.34447116501171937,-1.7064072445145109
1.3470121754057391,0.8994622717180256,-0.02220362220447132,0.32898104877291745,-1.7145153930316057
1.3427982870741266,0.8384190672151313,-0.022153097075659798,0.31357899862596794,-1.7189310953484893
1.3385956760101587,0.7802934580943734,-0.022084914124002947,0.298269518434631,-1.719374010502401
1.3344079657406906,0.7250673621960608,-0.02199624660723929,0.28305780681075215,-1.715544634602654
1.330239338108779,0.6727216357049883,-0.021884044254989406,0.2679498404636958,-1.7071229179708982
1.3260945790469147,0.6232359166319412,-0.02174499850147614,0.2529524655683929,-1.6937669726504732
1.32197913151441,0.5765884502774199,-0.021575501840678385,0.23807349605814296,-1.6751119820869913
1.3178991568588805,0.5327558955960505,-0.021371599796475408,0.22332181637731252,-1.6507694826175137
1.3138616062108919,0.4917131120567966,-0.021128933340247714,0.2087074840358956,-1.620327271096537
1.309874304032311,0.45343292780550826,-0.02084266853954991,0.19424182387240593,-1.583350316509597
1.3059460467105874,0.417885891975871,-0.02050740853122617,0.17993750065012437,-1.5393832325358394
1.3020867202849304,0.3850400172921411,-0.020117080159899107,0.1658085486522871,-1.4879551253119856
1.2983074432743589,0.35486052427229,-0.01966478310927605,0.1518703252409156,-1.4285879945138493
1.2946207435959391,0.3273096061934666,-0.01914258192672121,0.13813933874669593,-1.3608103668743927
1.2910407834460849,0.30234624552254274,-0.018541209124375648,0.12463287884197222,-1.2841784990002691
1.2875836539633618,0.2799261286995858,-0.017849627535866417,0.11136835087336897,-1.1983082737449942
1.2842677744205464,0.2600017272223525,-0.01705436765166528,0.09836219099227576,-1.1029216729843603
1.2811144516477733,0.2425226366975224,-0.016138503640683987,0.08562823558485036,-0.9979119701064578
1.2781486891420177,0.22743628347441103,-0.015080049051478734,0.07317548255312986,-0.8834304390191627
1.2754003897075865,0.21468909886568355,-0.013849418679376453,0.061005408065036196,-0.7599922241875388
1.2729061859036097,0.20422817734647225,-0.01240535820458923,0.049109555295109804,-0.6285866289453134
1.270712301081383,0.19600319279858525,-0.010688166239901317,0.03746922941947689,-0.4907544600501116
1.2688792442179393,0.18996780208950526,-0.008607169164768707,0.02606119909718674,-0.34856561431865446
1.2674904647299654,0.18607856095912467,-0.006011562287587587,0.014878181222575828,-0.20441215979055022
1.2666736247495853,0.18428526093723008,-0.0025867532953613537,0.003998661113137318,-0.060560414095432474
