x,y,v_x,v_y,omega
2.375,32.48,0.0,3.333333333333333,-4.938775510204081
2.3736201052571704,31.789085760740143,-0.013141854693615262,3.246802278665262,-4.583461250388099
2.3697079451193708,31.115920492126083,-0.024116813285428994,3.164295517659118,-4.266719395739678
2.3636824219569306,30.45969036452382,-0.03326912159495191,3.0855152214100743,-3.983160345352146
2.355896369467699,29.8196408691332,-0.040883759254873926,3.0101942585006034,-3.728281925784278
2.346647820592996,29.195070816083412,-0.04719765859943903,2.938091961021166,-3.4983033629503013
2.336189164610016,28.585327142659484,-0.05240858885751511,2.8689906430162506,-3.290033894987836
2.3247346277107117,27.989800390886316,-0.056682238754905995,2.8026927072043764,-3.100768054918605
2.312466413426224,27.407920743781972,-0.06015789728783565,2.7390182175989213,-2.928201659839711
2.2995397654778915,26.839154532152786,-0.06295303555342481,2.677802845536181,-2.770364000809786
2.2860871595142838,26.283001140951793,-0.06516702124283877,2.618896118282798,-2.6255627979158733
2.272221787125738,25.738990257424234,-0.06688414436236081,2.562159915313017,-2.492339279405855
2.258040462215127,25.20667941355137,-0.06817609288155373,2.5074671691904378,-2.3694313390721176
2.2436260538514223,24.685651783410925,-0.06910398677277414,2.4547007369090257,-2.255743176103438
2.2290495293824453,24.175514202529357,-0.06972005578891514,2.4037524143440305,-2.15032016458073
2.2143716755299945,23.675895381494897,-0.07006902852013958,2.3545220716984323,-2.052327963098067
2.199644552456803,23.186444290316487,-0.07018928646263473,2.306916891905483,-1.9610350785356194
2.184912725642053,22.706828693465496,-0.07011382605879787,2.2608506971515707,-1.8757982563677504
2.170214312268426,22.23673381838585,-0.06987106321383779,2.216243351225987,-1.7960501938273647
2.1555818722779576,21.775861142625956,-0.06948550812395467,2.173020227439664,-1.7212891697925197
2.1410431689638116,21.32392728672749,-0.06897833296315194,2.1311117334981553,-1.6510702624397207
2.1266218196725104,20.88066300167482,-0.06836785076352446,2.0904528860510583,-1.584997887077694
2.1123378536946813,20.44581224112221,-0.06766992045389567,2.0509829287357166,-1.522719435605097
2.0982081915640194,20.019131309819066,-0.0668982903143143,2.012644988437075,-1.4639198383830512
2.0842470576393857,19.60038808068337,-0.06606488992029391,1.9753857652362259,-1.4083169010259604
2.0704663359150555,19.18936127385811,-0.06518007888284932,1.9391552521472064,-1.355657294277924
2.0568758774106817,18.78583979184949,-0.06425285925404339,1.9039064812682251,-1.3057130959922483
2.0434837661728493,18.389622105507428,-0.06329105729674188,1.8695952934180589,-1.2582788012346395
2.030296549823951,18.000515686184457,-0.06230147935943168,1.8361801287054664,-1.213168730446499
2.0173194396810548,17.618336479911303,-0.06129004581100694,1.8036218358007585,-1.170214777033419
2.004556484704825,17.2429084198671,-0.0602619063435621,1.7718834979535598,-1.1292644451614264
1.9920107228999369,16.8740629738081,-0.05922153941727984,1.7409302740369028,-1.0901791363287032
1.9796843132522737,16.51163872345859,-0.05817283817951136,1.7107292531013296,-1.0528326497363878
1.9675786508369804,16.15548097316758,-0.05711918482328207,1.6812493210987305,-1.0171098668517347
1.9556944673507954,15.805441385400432,-0.05606351504514609,1.6524610385884178,-0.9829055950361553
1.9440319190002588,15.461377640869703,-0.05500837400758362,1.6243365283709055,-0.9501235488576716
1.932590663404664,15.12315312131911,-0.053955964998082244,1.5968493721109278,-0.9186754508503847
1.921369926941031,14.790636613160618,-0.05290819179842287,1.5699745151128068,-0.888480236127015
1.9103685637612995,14.46370203033123,-0.051866695627591865,1.54368817850041,-0.8594633474795756
1.899585107543893,14.142228154884794,-0.05083288739532563,1.517967778132328,-0.8315561094874715
1.8890178168982414,13.826098393967438,-0.04980797589659378,1.4927918496520125,-0.8046951717489843
1.8786791144146027,13.515202390095283,-0.048655857280918716,1.4681224729399538,-0.7749154073453355
1.8685798637634323,13.209433846358767,-0.04752748225403626,1.4439588959792493,-0.7465448441726024
1.8587150676180593,12.908688496846601,-0.046422957225709466,1.4202825279461304,-0.7194997158475374
1.8490797169340447,12.612865887381556,-0.045342287383953093,1.397075657435244,-0.6937021807503881
1.8396688106408252,12.321869196320023,-0.044285391599088425,1.374321400293651,-0.6690798366847367
1.8304773724045424,12.035605065919647,-0.04325211541312737,1.3520036511385132,-0.6455652805795584
1.8215004648383584,11.75398344353319,-0.04224224236005476,1.3301070382563047,-0.6230957085734303
1.812733201488407,11.476917431947271,-0.04125550382995931,1.3086168816095949,-0.6016125523515226
1.804170756881763,11.204323148239482,-0.040291587661887215,1.2875191537027029,-0.581061148070855
1.7958083748865254,10.936119590577281,-0.03935014562609149,1.2668004430801763,-0.5613904346171252
1.7876413756025622,10.672228512427363,-0.03843079993546295,1.2464479202523675,-0.5425526782947703
1.779665160974011,10.412574303685496,-0.03753314890787862,1.2264493058606722,-0.524503221367306
1.7718752192906975,10.157083878274424,-0.036656771885584756,1.2067928409114466,-0.5072002521429582
1.7642671287247698,9.905686567791864,-0.03580123350420221,1.1874672589224626,-0.4906045945459609
1.756836560030647,9.658314020821894,-0.03496608739220713,1.1684617598391578,-0.47467951533078057
1.7495792785204523,9.41490010755183,-0.0341508793715513,1.1497659855900413,-0.4593905472885118
1.7424911454132102,9.175380829362911,-0.03335515022123037,1.1313699971615787,-0.44470532696486087
1.7355681186439011,8.939694233087252,-0.032578438057901865,1.1132642530828043,-0.43059344556017676
1.7288062532078226,8.707780329645573,-0.03182028038094303,1.095439589218915,-0.41702631181622685
1.7222017011063575,8.479581016800552,-0.031080215823486256,1.0778871997812796,-0.4039770258138684
1.7157507109520758,8.2550400057793,-0.030357785645862747,1.0605986194687287,-0.3914202627122
1.7094496272839006,8.034102751535599,-0.02965253500342414,1.0435657066617627,-0.37933216555472427
1.7032948896367759,7.8167163864383795,-0.028964014016811476,1.0267806275974691,-0.3676902463528527
1.6972830314047314,7.602829657187495,-0.02829177866932844,1.010235841458572,-0.3564732947329136
1.6914106785313776,7.392392864771253,-0.02763539155308725,0.9939240863151606,-0.3456612935007079
1.6856800071662663,7.185495866497295,-0.02694243097178245,0.9765235162939525,-0.36157140312461605
1.6800910450104056,6.982240841124309,-0.02628578003641483,0.9592386301154285,-0.3794400676414579
1.674636209273595,6.782603834928302,-0.025665036504640703,0.942066190798923,-0.3991541763851753
1.6693080104193672,6.586561560602995,-0.025079714488006007,0.9250030884897332,-0.4206037454948012
1.6640990689040827,6.394091371125764,-0.024529252324226453,0.9080463351029346,-0.44368167167613
1.6590021303309097,6.205171234704224,-0.024013019801229593,0.8911930593879385,-0.46828349400260805
1.6540100791498868,6.019779710716968,-0.023530324779941405,0.8744405023954684,-0.49430716279404757
1.649115951025813,5.837895926565675,-0.023080419258856708,0.8577860133311236,-0.5216528146399048
1.6443129439870596,5.659499555358785,-0.02266250491974732,0.8412270457821275,-0.5502225526555438
1.6395944284604935,5.484570794349505,-0.02227573819040527,0.8247611543062607,-0.5799202310752194
1.6349539562905093,5.313090344053041,-0.02191923485706421,0.8083859913743607,-0.6106512432944571
1.6303852688336309,5.145039387969415,-0.021592074256064405,0.7920993046601774,-0.6423223124770411
1.625882304214247,4.980399572839346,-0.021293303071401138,0.7758989346738208,-0.6748412838378194
1.6214392038217398,4.81915298936115,-0.021021938761998912,0.7597828127375631,-0.7081169177018004
1.6170503181245444,4.661282153296639,-0.020776972639861245,0.7437489593053862,-0.7420586824222946
1.6127102118725074,4.506769986893378,-0.020557372617634927,0.7277954826304422,-0.7765765462158046
1.6084136687552903,4.355599800549488,-0.020362085641574858,0.7119205777875499,-0.8115807669385771
1.6041556955814704,4.207755274645386,-0.02019003982337737,0.6961225260610328,-0.8469816787886946
1.5999315260404225,4.063220441464253,-0.020040146281841864,0.6803996947116638,-0.8826894748677427
1.5957366241070354,3.9219796671197997,-0.019911300702797032,0.6647505371402725,-0.9186139844767525
1.5915666871478096,3.784017633405746,-0.019802384623162077,0.6491735934697526,-0.9546644439515475
1.587417648785928,3.6493193194763762,-0.01971226644237671,0.6336674915718671,-0.9907492597619835
1.5832856815825005,3.517869983261434,-0.019639802161695318,0.6182309485704509,-1.0267757625069232
1.579167199591381,3.3896551425113977,-0.019583835848967265,0.6028627728584621,-1.0626499503311682
1.575058860845774,3.2646605553605994,-0.01954319982348036,0.5875618666729463,-1.0982762201709177
1.5709575698363287,3.142872200285595,-0.01951671455218776,0.5723272292794692,-1.133557085099601
1.566860480042611,3.024276255324512,-0.01950318824512539,0.5571579608260941,-1.168392875895092
1.5627649965828019,2.9088590764094207,-0.01950141613400787,0.5420532669366951,-1.2026814247814683
1.5586687790502811,2.7966071746479955,-0.01951017941380986,0.5270124641244933,-1.2363177291129013
1.5545697446104647,2.6875071923723866,-0.019528243822534406,0.5120349861193955,-1.2691935925636837
1.5504660714370255,2.5815458777520384,-0.01955435782926891,0.4971203912172413,-1.3011972411671036
1.5463562025734823,2.4787100577427807,-0.019587250394951853,0.48226837077569673,-1.3322129113082009
1.5422388503143,2.378986609116275,-0.01962562826392684,0.46747875900055436,-1.3621204065241332
1.538113001209178,2.282362427281484,-0.019668172737236967,0.4527515441879272,-1.3907946197059369
1.5339779218053564,2.1888243925724318,-0.019713535870586885,0.4380868816125703,-1.4181050170350578
1.5298331652557082,2.0983593336336455,-0.01976033603082285,0.42348510828063235,-1.4439150797400222
1.5256785789353522,2.010953987485518,-0.01980715273447323,0.40894675979678574,-1.4680816995426167
1.5215143132268187,1.9265949557955935,-0.019852520680132154,0.3944725896310574,-1.4904545235083047
1.5173408316537422,1.8452686568178116,-0.019894922872978147,0.38006359110973315,-1.510875243965663
1.5131589225660451,1.7669612723891,-0.019932782724135043,0.3657210224970549,-1.529176829277821
1.5089697126061221,1.6916586892911027,-0.01996445498941897,0.3514464355791257,-1.5451826916275782
1.5047746822162198,1.619346434193595,-0.0199882153906017,0.33724170820664623,-1.5587057887510185
1.500575683482853,1.5500096012958622,-0.020002248736702123,0.3231090812955721,-1.569547657915859
1.4963749606556818,1.4836327716738253,-0.020004635331594335,0.3090512008190531,-1.577497382670832
1.4921751737272586,1.4201999232269955,-0.019993335415292753,0.2950711653412365,-1.5823304963965104
1.4879794255183285,1.3596943300050555,-0.019966171336422478,0.28117257962962366,-1.5838078320528073
1.4837912927838075,1.3020984495883035,-0.01992080708758668,0.2673596148156348,-1.5816743355936782
1.4796148619413163,1.2473937971136912,-0.019854724745662987,0.2536370754187722,-1.5756578725371526
1.4754547701335783,1.1955608045028505,-0.019765197232794726,0.24001047325591834,-1.565468074925683
1.4713162524779348,1.146578663497845,-0.019649256630475002,0.22648610774413505,-1.550795301979197
1.4672051965461828,1.1004251513032166,-0.019503657005261698,0.21307115125231274,-1.5313098258826505
1.4631282053806394,1.0570764380594326,-0.019324830285626263,0.1997737367837335,-1.5066614097697448
1.4590926707277485,1.0165068761704497,-0.019108833075240493,0.1866030431113536,-1.4764795257994148
1.4551068587235911,0.9786887728826343,-0.01885128125006712,0.17356936915356544,-1.4403745781733235
1.4511800111028113,0.9435921497672979,-0.018547267519265248,0.16068418432584627,-1.3979406639866627
1.4473224662984245,0.9111844963321047,-0.0181912544272763,0.14796013410458048,-1.3487606435802666
1.4435458068423435,0.8814305304841881,-0.01777693086873303,0.13541096920889853,-1.2924146250787516
1.4398630427372212,0.8542919867790673,-0.017297012989572723,0.12305135179226574,-1.2284934176447286
1.4362888457198433,0.8297274652168021,-0.016742958604502613,0.110896472610273,-1.156619081575302
1.4328398578191732,0.8076923895158998,-0.016104545211403764,0.09896139120784188,-1.0764753546814543
1.4295351113084962,0.7881391440430292,-0.015369231080759143,0.08725999424808056,-0.9878512804855991
1.4263966191652027,0.7710174797380098,-0.014521170283939606,0.07580347532353579,-0.8907013159465103
1.4234502303634644,0.7562752914073734,-0.013539675446902426,0.06459831830157677,-0.7852234728301106
1.4207269009775136,0.7438598475922298,-0.012396794895486198,0.053644003747394885,-0.6719516391165083
1.4182646274915136,0.7337194512359488,-0.011053428780703936,0.04293119964575557,-0.5518463059711254
1.4161114732819902,0.7258052393916223,-0.009452801786187466,0.03244224649068006,-0.4263477743860591
1.4143305821940002,0.7200722458942224,-0.007508065718478018,0.02215769157978259,-0.29733240331811983
1.4130096817461115,0.7164775223641122,-0.005071938547129475,0.012077770611756805,-0.16690287326014053
1.4122861056496592,0.7149679231102439,-0.0018192623714637537,0.002299365139359298,-0.036982402225926
