x,y,v_x,v_y,omega
2.375,32.48,0.0,3.641025641025641,-4.6938775510204085
2.3736920573281686,31.761541220811047,-0.013079426718313528,3.543562150863841,-4.34360780251035
2.3699918365161357,31.062106330325953,-0.023922781402015262,3.4507867539870998,-4.032844631587208
2.364309699238139,30.38079319910584,-0.032898591377951925,3.3623445582140357,-3.7558685670450678
2.3569888711300577,29.71676698246115,-0.04030968970286256,3.2779176082328885,-3.507933447955679
2.348317297015016,29.069253240484784,-0.04640605144755453,3.1972198115307533,-3.2850787684245
2.338537203417846,28.437531983751622,-0.0513948845241444,3.1199927558008644,-3.0839822296074706
2.3278528533850844,27.82093248565407,-0.055448615803469846,3.0460022251746715,-2.901843036752489
2.3164368667531168,27.218828735980168,-0.05871125051620625,2.9750352715643413,-2.7362889058157194
2.3044353951936283,26.630635435592083,-0.06130346507868269,2.9068977323164873,-2.5853014966077073
2.291972377974874,26.055804451293945,-0.06332670710886003,2.841412110664894,-2.447156269514381
2.279153056022964,25.493821664822637,-0.06486651241023582,2.778415754048212,-2.320373707704666
2.266066884697678,24.94420416149827,-0.06599520084262345,2.7177592791954606,-2.203679550806264
2.2527899569240852,24.4064977132465,-0.06677407689330815,2.6593052033221825,-2.0959722152394367
2.2393870259037874,23.880274518038853,-0.06725523330966933,2.6029267487543444,-1.9962959773605413
2.2259131990596703,23.365131163717535,-0.06748303513150077,2.54850679445879,-1.9038188016126725
2.2124153610209256,22.860686788994435,-0.06749534525594598,2.4959369527722393,-1.8178139310881563
2.1989333724853317,22.366581418375304,-0.0673245400999931,2.4451167534190645,-1.7376445398364868
2.1855010830630257,21.88247445104,-0.06699835412306741,2.395952919933967,-1.662750887819457
2.1721471892220956,21.408043286442833,-0.06654058428623505,2.3483587260376884,-1.5926395302028276
2.158895962846687,20.942982071690597,-0.06597167946784763,2.302253421484692,-1.526874219839004
2.145767871393881,20.487000557691026,-0.06530923506021619,2.2575617185110057,-1.4650682107238369
2.132780106972017,20.039823052706552,-0.06456840915842234,2.2142133313337506,-1.4068777249819848
2.1199470386854964,19.601187463348253,-0.06376227370678339,2.1721425622492347,-1.351996389657767
2.1072806001621855,19.170844414244467,-0.0629021115263255,2.131287928788624,-1.3001504846446532
2.0947906221914767,18.7485564386502,-0.061997668180760634,2.0915918271540304,-1.2510948713127534
2.0824851187683846,18.334097233154715,-0.06105736605016268,2.0530002278008226,-1.2046094942123886
2.0703705334939952,17.927250970417052,-0.060088486693729785,2.0154623995758114,-1.1604963667506625
2.0584519521710924,17.52781166453117,-0.05909732653529777,1.9789306592830114,-1.1185769668232413
2.0467332865125547,17.135582584208578,-0.0580893300500787,1.943360143942907,-1.078689980716114
2.0352174331144615,16.750375709479407,-0.057069203930856884,1.908708603348791,-1.040689343709218
2.0239064112076997,16.37201122806313,-0.05604101513676132,1.8749362108139886,-1.0044425341412446
2.0128014821686233,16.000317067956317,-0.05500827525400143,1.8420053902541296,-0.9698290845714747
2.0019032533225607,15.635128463134379,-0.05397401320662295,1.8098806579652593,-0.9367392793706721
1.9912117681987793,15.276287549573194,-0.052940838031192206,1.778528477646597,-0.9050730128058215
1.9807265850796496,14.923642989070494,-0.05191099316010447,1.747917127380387,-0.8747387856273049
1.9704468454202342,14.577049618590046,-0.05088640343404917,1.7180165774241114,-0.8456528214628622
1.9603713334891244,14.236368123068107,-0.049868715877049476,1.6887983777952802,-0.817738287084467
1.950498528390327,13.90146472981472,-0.04885933511092544,1.6602355547386078,-0.7909246029347906
1.9408266494637627,13.572210922814687,-0.047859454154715736,1.63230251526172,-0.7651468322548128
1.9313536959238702,13.248483175387474,-0.046870081244209216,1.6049749590104057,-0.740345138805143
1.922077481478075,12.930162699803496,-0.04589206321374391,1.5782297968293557,-0.7164643045714316
1.9129956645663087,12.6171352125785,-0.04492610590392042,1.5520450754206068,-0.6934533000305361
1.904105774776671,12.309290714279374,-0.04397279199245563,1.5263999075706518,-0.6712649005632184
1.8954052359185156,12.006523282775376,-0.04303259658909643,1.5012744074693332,-0.6498553434595208
1.8868913861708374,11.70873087895944,-0.042105900887687994,1.4766496306900294,-0.6291840206981232
1.8785703798240398,11.41581632232393,-0.04110416258028582,1.452495935665069,-0.6067326950590366
1.870447369000336,11.127685887211616,-0.040125945656753176,1.4288084154580958,-0.5852969525018484
1.8625176804055041,10.844247987916653,-0.03917094029156559,1.4055705774915244,-0.5648189175776759
1.8547767067899272,10.565414262718477,-0.03823879586420388,1.3827666744902425,-0.5452446380302279
1.8472199143647163,10.291099429052728,-0.03732912838790624,1.3603816621672424,-0.5265237765956902
1.8398428488312508,10.021221146859666,-0.036441526946748015,1.3384011597633798,-0.508609330242275
1.8326411402097489,9.755699889561537,-0.03557555926827226,1.3168114132179183,-0.49145737412495977
1.8256105066286987,9.494458822163107,-0.03473077654222906,1.2955992607663673,-0.4750268278287939
1.8187467572163167,9.237423686008473,-0.03390671758158926,1.2747521007799936,-0.4592792417365166
1.8120457942172026,8.984522689762724,-0.033102912409553605,1.2542578616775062,-0.44417860158767525
1.8055036144416965,8.735686406219575,-0.03231888534550582,1.2341049737539653,-0.42969114950089854
1.7991163101417937,8.490847674565668,-0.03155415765352221,1.2142823427851204,-0.4157852199118616
1.7928800693955464,8.249941507759427,-0.030808249808950975,1.1947793252772836,-0.40243108903972646
1.7867911760714974,8.012905004707335,-0.03008068343154011,1.1755857052436358,-0.38960083663698974
1.7808460094355953,7.779677266943207,-0.029370982927477682,1.1566916723976421,-0.3772682189039362
1.775041043455109,7.550199319537128,-0.028678676877386983,1.1380878016631428,-0.3654085515611965
1.7693728458471019,7.324414035979938,-0.028003299202683962,1.1197650339087595,-0.35399860217391366
1.7638380769129671,7.1022660668069015,-0.027344390138663858,1.1017146578216088,-0.3430164909101897
1.7584334881951849,6.88370177174054,-0.02670149703915818,1.0839282928420138,-0.3324415989960837
1.7531559209878167,6.66866915514764,-0.026074175034524524,1.066397873087004,-0.32225448420057345
1.74800230472816,6.45711780461934,-0.02546198756204092,1.0491156321959765,-0.31243680274755015
1.7429696552934137,6.248998832496046,-0.024864506785423277,1.0320740890369746,-0.3029712371089392
1.7380550732230589,6.044264820170678,-0.024281313918124707,1.0152660342167064,-0.29384142918417944
1.7332557418849193,5.842869765014839,-0.023711999463271755,0.998684517341678,-0.285031918417203
1.7285737392833125,5.644938568396071,-0.02310802655279612,0.9806274488459893,-0.3103346107740837
1.7240085976134674,5.450607570122678,-0.022543390145654603,0.9626825338879403,-0.33732502298429506
1.7195525287622706,5.259854642521468,-0.022017298366314376,0.9448467421241659,-0.3658942702751779
1.7151979088441356,5.072658252263249,-0.021528900815034235,0.9271171604580265,-0.39593599560691395
1.7109372892960084,4.888997437350728,-0.0210772946662377,0.9094909886671799,-0.4273461334289805
1.7067634068061537,4.7088517849418885,-0.020661530232311206,0.8919655354212237,-0.4600226789576804
1.7026691921798904,4.532201409932004,-0.020280616030320144,0.8745382146776101,-0.49386546202671233
1.6986477782382894,4.359026934219589,-0.019933523385690786,0.8572065424465379,-0.5287759245719481
1.6946925068393555,4.189309466583129,-0.019619190603648064,0.83996813391805,-0.5646569008139131
1.6907969351053804,4.0230305830966095,-0.0193365267361017,0.8228207009471302,-0.6014123991967616
1.6869548409348993,3.8601723080123733,-0.019084414968710273,0.8057620498952441,-0.6389473851305941
1.6831602278730284,3.7007170950398987,-0.018861715649999507,0.7887900798295198,-0.6771675635644625
1.6794073294098641,3.5446478089485787,-0.018667268981642147,0.7719027810836769,-0.7159791603899761
1.6756906127730704,3.3919477074214193,-0.01849989738629668,0.7550982341879116,-0.7552887016395716
1.6720047822777682,3.2426004230847987,-0.018358407566725448,0.7383746091782798,-0.7950027893986772
1.6683447822943713,3.096589945636996,-0.018241592267242084,0.7217301652997575,-0.8350278732965155
1.6647057998930626,2.9539006039949065,-0.018148231745846174,0.7051632511211335,-0.8752700163753769
1.661083267222212,2.8145170483743627,-0.018077094962659693,0.6886723050842957,-0.9156346540619692
1.6574728636772007,2.6784242322143967,-0.018026940487453676,0.6722558565153739,-0.956026344875927
1.6538705179158444,2.5456073938497887,-0.017996517126110393,0.6559125271306937,-0.9963485114086335
1.6502724097769563,2.4160520378290506,-0.01798456426276896,0.6396410330766785,-1.036503169988966
1.6466749721595684,2.2897439157663975,-0.017989811911109974,0.6234401875498407,-1.076390647320127
1.6430748929219874,2.1666690066063197,-0.0180109804647022,0.6073089040509515,-1.115909282222003
1.639469116862266,2.0468134961675695,-0.018046780132511573,0.5912462003365454,-1.154955110445103
1.6358548478448645,1.9301637558197875,-0.018095910041503554,0.5752512031412755,-1.1934215303337323
1.6322295511423448,1.8167063201300095,-0.01815705698369147,0.5593231537565106,-1.2311989469064244
1.6285909560659833,1.7064278632979395,-0.018228893779924652,0.5434614145641844,-1.2681743916898789
1.6249370589652816,1.599315174177466,-0.018310077227090674,0.5276654766405604,-1.3042311153883124
1.6212661266836592,1.4953551296571526,-0.01839924558913404,0.5119349685625645,-1.3392481501936613
1.6175767005662194,1.394534666143894,-0.018495015585264517,0.49626966657000865,-1.3730998382452142
1.613867601125611,1.2968407488608165,-0.018595978820820848,0.48066950626076677,-1.4056553224337527
1.610137933483796,1.2022603386324242,-0.018700697597329813,0.4651345960231592,-1.4367779954218614
1.6063870937212439,1.1107803557860194,-0.01880770002819075,0.4496652324408764,-1.4663249024298999
1.602614776280932,1.022387640747823,-0.018915474374925804,0.43426191794110036,-1.4941460930338248
1.5988209825928568,0.9370689108540731,-0.019022462505827308,0.41892538099638665,-1.5200839169636644
1.5950060311058931,0.8548107128308828,-0.019127052363809877,0.40365659923550323,-1.5439722587207227
1.591170568938216,0.7755993703205668,-0.019227569312959582,0.3884568258676538,-1.565635705808108
1.587315585385603,0.6994209257460291,-0.019322266213170444,0.3733276198777127,-1.584888645582273
1.583442427559416,0.6262610757076779,-0.019409312048699008,0.35827088050580663,-1.601534286313927
1.579552818463695,0.5561050989990974,-0.01948677890850961,0.3432888865800013,-1.6153635991864101
1.5756488778645878,0.4889377762089886,-0.019552627082565104,0.3283843413210714,-1.6261541799377763
1.57173314635666,0.4247432997493732,-0.01960468799671294,0.3135604232751062,-1.6336690320768412
1.5678086130913456,0.36350517301789864,-0.019640644656430107,0.2988208440396047,-1.6376552786675758
1.5638787477055427,0.30520609727290804,-0.01965800920159813,0.28416991341031816,-1.6378428174480715
1.55994753707708,0.24982784468630825,-0.01965409708303196,0.26961261245565554,-1.6339429457977195
1.556019527644338,0.19735111596370558,-0.01962599724438468,0.2551546747703995,-1.6256469996437812
1.55209987416887,0.14775538091771523,-0.019570537510295655,0.24080267568953112,-1.6126250765198276
1.5481943960067976,0.10101870050560535,-0.01948424411042719,0.2265641284315583,-1.594524951621289
1.5443096422102454,0.05711752918249147,-0.019363293855097306,0.21244758479959042,-1.5709713526331217
1.5404529671415998,0.016026497111226945,-0.01920345683135822,0.1984627359130379,-1.5415658427175438
1.5366326188126704,-0.022281826985334874,-0.019000026457936286,0.18462050505257807,-1.5058876833656996
1.5328578429597606,-0.0578371894374996,-0.018747732071162256,0.17093311946908726,-1.4634962267180363
1.52913900710372,-0.09067191539376296,-0.018440626489242034,0.15741414009351848,-1.4139356433042571
1.5254877508035287,-0.12082117104414891,-0.018071936512672603,0.14407841641033806,-1.3567431548182973
1.5219171714630924,-0.14832320439955282,-0.01763385689168996,0.13094191714368325,-1.2914624438218496
1.5184420601735713,-0.1732195326247492,-0.017117256003522523,0.11802136510829085,-1.217664573559596
1.5150792104497897,-0.1955550269126718,-0.016511241234293025,0.10533357777095856,-1.134979544267213
1.5118478364283727,-0.21537782373246728,-0.015802498979876574,0.09289439042698033,-1.0431423754063547
1.5087701594560805,-0.23273896640787228,-0.014974270743047162,0.08071703632704265,-0.9420578527563159
1.5058722582810746,-0.24769166258413833,-0.01400474100701038,0.06880992543564564,-0.8318866679992346
1.503185337059442,-0.26029005505922953,-0.012864471209315831,0.05717399931524951,-0.7131503283954719
1.500747664743561,-0.27058749657931,-0.01151225194949557,0.045800415885584186,-0.5868393934869133
1.4986076281744558,-0.2786345866437969,-0.009888113741554825,0.03467048475924972,-0.4544863426355064
1.4968288018428888,-0.28447783118099323,-0.007900149574117365,0.023761960612712248,-0.3181346593502219
1.4954995107206135,-0.28816115372740825,-0.005392761648633745,0.013071264851408027,-0.18011909275893215
1.4947576021136504,-0.2897375780839795,-0.0020263244209988,0.002692978714321023,-0.0426083161925746
