x,y,v_x,v_y,omega
2.375,32.48,0.0,3.1794871794871797,-6.163265306122449
2.3730438368444284,31.758651312318165,-0.0170101143962746,3.0931101047026552,-5.700071383957312
2.3675102908465826,31.056679392108276,-0.0311076768893414,3.0109935492963826,-5.28944648149367
2.35901387964876,30.37314354293271,-0.04277415961346269,2.9327964435346288,-4.92370711557875
2.3480683376794587,29.70717701462869,-0.05240446620655072,2.858216846065554,-4.596496516070497
2.3351045466354052,29.057978709639865,-0.060324151567827035,2.786985806011173,-4.302523199398869
2.3204849423111047,28.424806158291723,-0.06680284255652548,2.7188624665813816,-4.03735732773963
2.3045151646452724,27.806969512323302,-0.07206478932027456,2.6536301070570496,-3.7972706713809545
2.2874535330044443,27.203826365989062,-0.07629722494779768,2.5910929045450293,-3.5791098280016236
2.2695187931683023,26.614777257582695,-0.07965703449691643,2.531073255510356,-3.380195053068633
2.2508964817258175,26.039261736293348,-0.08227610848121324,2.4734095383100514,-3.198238985644126
2.2317441778107754,25.476754903241897,-0.08426566469306258,2.4179542273547354,-3.0312809522204436
2.212195854510573,24.92676435365647,-0.08571975530870149,2.3645722907794,-2.877633556729288
2.192365498101236,24.388827461023936,-0.08671812651161924,2.313139819068728,-2.7358390253234903
2.172350129088334,23.86250895481471,-0.08732856055709344,2.263542843620167,-2.6046333440851512
2.152232332402981,23.34739875181689,-0.08760880192423595,2.2156763128826205,-2.4829166582909643
2.1320823832088696,22.843110007803823,-0.08760814758977564,2.1694432002744786,-2.3697287299442515
2.111960038282753,22.34927736161344,-0.08736876481124158,2.1247537231201807,-2.2642285022409196
2.091916049836531,21.865555348043774,-0.08692678689503545,2.081524655746458,-2.1656770145063335
2.071993448198939,21.391616959495636,-0.08631322734489309,2.0396787229330022,-2.07342306284758
2.05222863139415,20.927152339191025,-0.08555474487066649,1.9991440623244974,-1.9868911205940463
2.032652292902964,20.471867591195355,-0.08467428548747162,1.959853746333473,-1.905571126207549
2.013290213429727,20.025483694472015,-0.08369162297545722,1.9217453556086173,-1.8290098204806866
1.9941639380607348,19.58773550987661,-0.08262381501577894,1.8847605973949513,-1.7568033738562536
1.9752913565815458,19.158370870415787,-0.08148558915108223,1.8488449631339237,-1.6885910919015417
1.9566872017594494,18.737149746298904,-0.08028967017149505,1.8139474204911679,-1.6240500248954022
1.93836347796564,18.32384347733757,-0.07904705847032517,1.7800201356943375,-1.5628903380880563
1.920329830508188,17.918234066128928,-0.07776726724665005,1.7470182226416628,-1.5048513239891574
1.9025938643910754,17.520113526216655,-0.0764585250760681,1.7148995157259423,-1.4496979582094174
1.8851614198419413,17.129283280079665,-0.075127949264228,1.6836243637261148,-1.3972179168499854
1.868036810810022,16.745553602367895,-0.07378169449159083,1.6531554424631874,-1.3472189869294242
1.8512230316844294,16.368743104300457,-0.07242508051356314,1.6234575842101888,-1.2995268124357642
1.8347219366876735,15.998678255575264,-0.07106270206692304,1.5944976220958191,-1.2539829277473642
1.818534395732896,15.635192940519335,-0.06969852362679305,1.566244247955736,-1.2104430377451256
1.8026604299733742,15.2781280455434,-0.06833596123861516,1.538667882269773,-1.1687755102312856
1.7870993298013382,14.927331075259382,-0.06697795330082687,1.5117405549825658,-1.128860051510507
1.7718497576551466,14.582655794879944,-0.06562702188344827,1.485435796142969,-1.0905865403659232
1.7569360166041499,14.24396567998663,-0.06405768290782837,1.4596956377119403,-1.0473736262353401
1.7423796045141353,13.911129546208986,-0.06251981352707993,1.4345316125284377,-1.0063627540147924
1.7281732198137214,13.584017498224696,-0.06101396647652138,1.4099209786393079,-0.9674132827543135
1.7143094579078453,13.262504737633336,-0.059540484878922544,1.385842156937745,-0.9303952589498194
1.7007808558282878,12.946471304077178,-0.058099533204185476,1.362274656594066,-0.8951884765790921
1.6875799302399521,12.635801832856249,-0.05669112408569077,1.3391990061966126,-0.861681630749173
1.674699209691577,12.330385327782906,-0.05531514155235322,1.3165966900933126,-0.8297715545669735
1.6621312618799975,12.030114948132393,-0.053971361157033756,1.294450089476374,-0.7993625301133787
1.6498687165942023,11.734887808645773,-0.052659467415099116,1.272742427798569,-0.7703656655008646
1.6379042849168366,11.444604791631651,-0.05137906890981792,1.2514577201503334,-0.7426983309498929
1.6262307751843776,11.159170370294103,-0.05012971137243495,1.2305807262631254,-0.7162836476506355
1.614841106141212,10.87849244248762,-0.04891088900291835,1.2100969068367335,-0.6910500239012793
1.6037283176658068,10.602482174165946,-0.047722054261473947,1.1899923829169603,-0.666930733647055
1.5928855793977783,10.331053851851781,-0.0465626263300788,1.170253898075781,-0.6438635330977781
1.5823061975518926,10.064124743508625,-0.04543199841675463,1.1508687831690387,-0.621790311586829
1.5719836201679342,9.801614967245445,-0.044329544052448926,1.1318249234673046,-0.6006567732602759
1.561911441013174,9.543447367329694,-0.04325462251068285,1.1131107279739954,-0.5804121465591285
1.552083402326188,9.289547397025121,-0.04220658346310762,1.0947151007614209,-0.5610089187872213
1.5424933965664498,9.039843007807967,-0.041184770969399716,1.0766274141703587,-0.5424025933477628
1.5331354673129414,8.794264544549172,-0.040188526887194195,1.0588374837322037,-0.5245514674881303
1.5240038094365906,8.552744646281209,-0.039217193776725175,1.041335544684868,-0.5074164286193383
1.5150927686552604,8.315218152196522,-0.038270117365276704,1.0241122299645709,-0.4909607674774868
1.5063968405660058,8.081622012550554,-0.037346648628242586,1.0071585495655722,-0.4751500065726094
1.4979106692370747,7.851895204166091,-0.03644614553637722,0.9904658711688822,-0.4599517425284899
1.4896368162569695,7.626086328115477,-0.03550040211671087,0.9730895727494895,-0.4642701761209977
1.481575987154183,7.404259010322573,-0.034593763994477,0.9558436254496784,-0.4710747264443079
1.4737191983098046,7.186383724660729,-0.03372613900011668,0.938724075957644,-0.48022941755276716
1.4660575017962438,6.972431835118922,-0.03289730894389098,0.9217271374493656,-0.4916028459168198
1.4585820130067109,6.762375558441359,-0.03210694139987379,0.9048491814859652,-0.5050678513300529
1.4512839356867087,6.556187928560469,-0.03135460051318751,0.8880867305217824,-0.5205012021898836
1.4441545845835524,6.353842762686817,-0.030639756905563868,0.8714364509882414,-0.537783293743858
1.4371854059133844,6.155314628927098,-0.029961796748070996,0.8548951469223728,-0.5567978579643589
1.4303679958299869,5.960578815308093,-0.029320030064080807,0.8384597541124492,-0.577431683775387
1.4236941170657937,5.76961130009045,-0.02871369832020847,0.8221273347366116,-0.5995743464064894
1.4171557139028004,5.582388723261268,-0.028141981357994582,0.8058950724736533,-0.6231179446912406
1.410744925619466,5.39888835909894,-0.027604003714478974,0.789760268068324,-0.6479568451612224
1.404454098549119,5.21908808970737,-0.027098840375495144,0.773720335336643,-0.6739874318114012
1.398275796875769,5.042966379419678,-0.02662552200146033,0.7577727975998197,-0.7011078604292396
1.3922028122845154,4.870502249973772,-0.026183039661614477,0.741915284538492,-0.7292178163878335
1.3862281725758903,4.701675256363696,-0.025770349109039654,0.7261455294621562,-0.7582182748027176
1.3803451493464367,4.536465463271476,-0.025386374625338694,0.7104613669919189,-0.7880112619425708
1.3745472648315609,4.374853421984227,-0.025030012460537626,0.6948607311580826,-0.8184996167655791
1.3688282980011834,4.216820147700517,-0.024700133890570953,0.6793416539176471,-0.849586751425319
1.3631822899939359,4.062347097128416,-0.02439558791158172,0.6639022641006107,-0.8811764095522082
1.3576035489715772,3.9114161462750694,-0.024115203587189462,0.6485407867980469,-0.9131724210682854
1.3520866544719414,3.7640095683242123,-0.023857792061817092,0.6332555432093933,-0.9454784522336155
1.3466264613360721,3.620110011493434,-0.023622148250089993,0.6180449509712718,-0.9779977495512168
1.3412181032832546,3.4797004767572446,-0.0234070522091931,0.6029075249955786,-1.0106328760731833
1.3358569962064437,3.3427642953149324,-0.02321127019785791,0.5878418788506056,-1.0432854385526653
1.3305388412601242,3.209285105673654,-0.023033555422312026,0.5728467267257183,-1.075855803773552
1.3252596278129665,3.0792468302070084,-0.02287264846601691,0.5579208860277365,-1.108242802260992
1.3200156363388003,2.952633651037253,-0.022727277396297783,0.5430632806657829,-1.14034341743023
1.314803441321473,2.8294299850752047,-0.022596157536982565,0.5282729450911721,-1.172052458067643
1.3096199142521565,2.709620458035161,-0.022477990891856765,0.5135490291700698,-1.2032622118555243
1.3044622268017028,2.5931898772229722,-0.022371465199044774,0.49889080397940544,-1.2338620774506213
1.2993278542558162,2.4801232028727647,-0.02227525259127325,0.48429766863109514,-1.263738172405793
1.2942145793072228,2.3704055177818617,-0.022188007831277633,0.4697691582463154,-1.2927729139854178
1.2891204963068181,2.264021994963162,-0.022108366085284988,0.45530495322064696,-1.3208445696707478
1.2840440160851099,2.160957862999375,-0.022034940190438113,0.4409048899427209,-1.3478267738857088
1.278983871466339,2.0611983687432662,-0.021966317364090958,0.42656897315386577,-1.3735880072042241
1.2739391236106636,1.9647287369616535,-0.021901055293956008,0.41229739016451394,-1.3979910340389348
1.2689091693349954,1.8715341264676013,-0.02183767753794055,0.3980905271750574,-1.420892294576703
1.263893749580773,1.781599582224235,-0.021774668150950912,0.38394898798464727,-1.4421412465463574
1.2588929592175038,1.694909982833721,-0.02171046544269356,0.36987361541111824,-1.4615796523201978
1.2539072583947461,1.6114499827457678,-0.021643454755198747,0.3558655157884891,-1.4790408069238323
1.2489374856828386,1.5312039484303241,-0.021571960130953624,0.34192608695451,-1.494348702848139
1.2439848732748076,1.4541558876589562,-0.02149423472149046,0.32805705018780823,-1.507317128252487
1.2390510645593116,1.3802893709284412,-0.02140844976108288,0.3142604865992708,-1.5177486964085953
1.2341381344183482,1.3095874439397015,-0.02131268189946901,0.30053887852020333,-1.525433806333581
1.229248612655256,1.2420325299178963,-0.021204898649158227,0.28689515645200725,-1.530149537896556
1.2243855110204285,1.1776063204303924,-0.02108294165368967,0.27333275213498637,-1.5316584898330479
1.2195523543771607,1.1162896532377324,-0.020944507418203907,0.25985565823595413,-1.5297075769048483
1.2147532166427464,1.058062375614206,-0.0207871250549641,0.24646849501210513,-1.524026814120614
1.2099927622572186,1.0029031915243038,-0.020608130471365022,0.2331765840305128,-1.5143281332621306
1.2052762940847177,0.9507894910798953,-0.020404636246033843,0.21998602852956192,-1.500304302529971
1.2006098088572763,0.9016971608932352,-0.02017349616649944,0.20690379918052126,-1.48162805769123
1.196000061554869,0.8556003743811686,-0.019911262984869435,0.19393782266354948,-1.4579516081272057
1.191454640522592,0.8124713619152999,-0.019614137295798056,0.18109706834398978,-1.4289067614677102
1.186982055727055,0.7722801621773385,-0.0192779044045257,0.1683916250295941,-1.394106027157633
1.1825918434662965,0.7349943585025791,-0.018897854384677032,0.15583275475092234,-1.353145227682861
1.1782946922631572,0.700578807863085,-0.01846867781653437,0.1434329029838082,-1.3056083866113477
1.1741025969079755,0.6689953761332177,-0.01798432527200234,0.13120563379765926,-1.2510759997696757
1.1700290511941305,0.6402027022849559,-0.017437811370127895,0.11916544314373967,-1.1891382542554154
1.1660892956614333,0.6141560272138094,-0.01682093239245747,0.10732738356188176,-1.1194153492135868
1.1623006460051608,0.5908071408651061,-0.016123847227303985,0.0957064107746823,-1.0415877493753654
1.1586829429133358,0.5701045240190368,-0.01533444052769602,0.08431634440854321,-0.955439785210254
1.1552591883856493,0.5519937850963537,-0.014437337973926535,0.07316834187566106,-0.8609200047326768
1.152056472411124,0.5364185065413558,-0.01341236615238186,0.062268862950417364,-0.7582199637397118
1.1491073561926561,0.5233215926745238,-0.012232122703860513,0.05161734458726584,-0.6478676122635478
1.1464519827172694,0.51264709627333,-0.010858081429936712,0.04120436324920104,-0.5308191001619598
1.1441413879648403,0.5043421975329849,-0.009234046852055994,0.031012147536421383,-0.4085118334085758
1.1422429996270154,0.49835834859126393,-0.007273677824683115,0.02102132152202718,-0.2828171277745003
1.1408511323006039,0.49464908218480375,-0.004829516318025837,0.011233168968927057,-0.15582117907151558
1.1401152861399986,0.49315586225675645,-0.0015691459481069125,0.0017513521445186586,-0.02940565447411203
