x,y,v_x,v_y,omega
2.375,32.48,0.0,3.0256410256410255,-2.2448979591836737
2.374427584555932,31.852239139227397,-0.005451575657788982,2.9530338388599335,-2.0972166937622303
2.3727980293445823,31.23940909889471,-0.010067997783637598,2.883442735737072,-1.964100836352589
2.370273841836003,30.64089709968149,-0.013971883250450177,2.8166715424840723,-1.8436929399271047
2.3669938234038423,30.05612977194154,-0.017266387532032485,2.7525411026583164,-1.73441464629233
2.363076801278409,29.48456977876212,-0.020038585091144732,2.6908874038123654,-1.6349192024074126
2.3586247178344095,28.925712805694904,-0.02236220961361295,2.6315599587325273,-1.5440529307862627
2.3537251978516447,28.379084868100115,-0.024299885460336887,2.574420399313075,-1.460823807898731
2.3484536898496304,27.84423989499215,-0.02590495265408386,2.51934124933424,-1.3843757167112343
2.3428752584373718,27.32075755469179,-0.02722296555790451,2.466204848764403,-1.3139672527226127
2.337046089573155,26.808241292818714,-0.028292928387016088,2.4149024071696474,-1.2489542025023803
2.331014758749767,26.306316557454107,-0.029148317550011453,2.365333167731403,-1.1887749983029403
2.3248233026940794,25.814629189860316,-0.029817930599395533,2.317403666495165,-1.132938595329706
2.318508127654266,25.332843962110005,-0.03032659358930389,2.2710270739840013,-1.0810143297090924
2.3121007813286054,24.860643245465337,-0.030695752369365396,2.226122608346165,-1.032623402531939
2.305628610648202,24.397725795447734,-0.030943968396384955,2.1826150108691063,-0.9874317041429161
2.2991153237156428,23.943805641320147,-0.031087335723224568,2.140434076060317,-0.9451437472995496
2.292581471031104,23.49861106922284,-0.03113983270095271,2.0995142296283187,-0.9054975211292783
2.286044858557055,23.061883689504583,-0.031113619432848204,2.059794148640748,-0.8682601124063839
2.2795209030651575,22.633377579909975,-0.031019290013796774,2.021216418926948,-0.8332239684237767
2.273022938481571,22.21285849724957,-0.030866086972740264,1.983727225457905,-0.8002036980916996
2.266562480526409,21.800103151016565,-0.030662084028802945,1.9472760719992768,-0.7690333259767976
2.260149455771255,21.394898533141433,-0.030414342210757846,1.911815526811505,-0.7395639286739847
2.253792400268964,20.997041298710432,-0.030129043525348797,1.8773009915789887,-0.7116615948639892
2.2474986321051498,20.60633719302917,-0.02981160565383137,1.8436904910996834,-0.685205660189235
2.241274401550889,20.222600520899196,-0.029466780577224974,1.8109444815667533,-0.660087176104642
2.235125021937028,19.84565365440374,-0.029098739554786555,1.7790256755328222,-0.6362075784649086
2.229054983902569,19.475326575876302,-0.028711146487679445,1.7478988818713366,-0.6134775270641047
2.22306805527697,19.11145645305921,-0.028307221375165566,1.7175308592438516,-0.5918158918612834
2.2171673685259297,18.75388724375474,-0.027889795301409857,1.687890181751103,-0.5711488653792507
2.2113554974117364,18.402469327533588,-0.027461358167098816,1.658947115593179,-0.5514091838909653
2.2056345242838824,18.057059162298533,-0.027024100193417267,1.630673505693057,-0.5325354426210143
2.2000060992162322,17.717518963708926,-0.026579948069916565,1.6030426713507993,-0.5144714923787829
2.194471492037746,17.38371640565712,-0.02613059648709297,1.576029310095012,-0.4971659068788627
2.1890316381597064,17.055524340153653,-0.02567753568471559,1.5496094089856034,-0.4805715115529527
2.183687178979585,16.73282053512677,-0.02522207555453388,1.523760162699019,-0.46464496596503624
2.1784384975367654,16.41548742877486,-0.02476536675803275,1.498459897795333,-0.44934639304822105
2.173293084112015,16.10341240868887,-0.02423857062054525,1.473683150642648,-0.43267053868512956
2.168257513808965,15.796487052779597,-0.023719241789454913,1.449415477064717,-0.4167866704137817
2.1633301739086424,15.494606419317183,-0.02320780488028434,1.4256381749582576,-0.40164756453910205
2.1585093713675656,15.197669401315036,-0.02270460027282705,1.402333425062175,-0.38720934667709084
2.1537933493750914,14.905578546607718,-0.022209894893594463,1.3794842388170507,-0.37343121673080887
2.149180301784882,14.618239888494454,-0.02172389167982733,1.3570744098807097,-0.3602751994429101
2.1446683856799975,14.33556278621166,-0.02124673789049908,1.3350884690030342,-0.3477059178739472
2.1402557322986575,14.057459774557337,-0.020778532407979784,1.3135116419905115,-0.3356903874579744
2.135940456519514,13.783846422044203,-0.02031933215529019,1.2923298105155212,-0.3241978285517261
2.1317206650807488,13.514641197007595,-0.019869157737712858,1.2715294755473914,-0.3131994956258857
2.1275944636859143,13.249765341138904,-0.019427998403568056,1.251097723202061,-0.3026685214510002
2.123559963130816,12.98914274995606,-0.018995816406888393,1.2310221928250362,-0.29257977481013236
2.119615284569445,12.732699859759897,-0.018572550844269987,1.2112910471384228,-0.28290973042856443
2.1157585640227397,12.48036554065914,-0.01815812102911048,1.1918929442973505,-0.2736363499504961
2.111987956221533,12.232070995277923,-0.017752429458571115,1.1728170117142434,-0.26473897291608955
2.108301637864099,11.987749662788193,-0.017355364421755722,1.1540528215212886,-0.256198216801431
2.104697810359192,11.747337127935474,-0.016966802291642276,1.1355903675522285,-0.24799588528077643
2.101174702117068,11.51077103475038,-0.016586609538111568,1.117420043734379,-0.2401148839563426
2.097730570443603,11.277991004660251,-0.01621464449488907,1.0995326237906582,-0.2325391428772366
2.094363703086167,11.048938558735486,-0.015850758909261135,1.0819192421594785,-0.22525354523702393
2.091072419474198,10.823557043823733,-0.015494799299969062,1.064571376047702,-0.21824386169993365
2.087855071692407,10.601791562342175,-0.01514660814565872,1.0474808285385504,-0.21149668985965664
2.0847100452201337,10.383588905513967,-0.014806024923612465,1.0306397126824616,-0.20499939838287703
2.0816357594664567,10.168897489849343,-0.014472887016165729,1.0140404365044564,-0.19874007543275596
2.0786306681272415,9.957667296685376,-0.014147030500170382,0.9976756888666656,-0.1927074810061446
2.0756957859921856,9.74998074676845,-0.013804227928932112,0.9802914531992969,-0.2116569585503778
2.072830133718763,9.545932875825255,-0.013487698484616532,0.9630216034025707,-0.23248297116307998
2.0700281907065996,9.345499996078185,-0.013197473059796091,0.9458629656171267,-0.25507746732734043
2.067284440524528,9.148659073489029,-0.012933481055175881,0.9288124876129464,-0.2793352899710794
2.064593391305099,8.95538770274662,-0.012695559129861785,0.9118672337433353,-0.30515394812874913
2.0619495943743287,8.765664083273297,-0.012483459258424217,0.8950243802883222,-0.3324333955077384
2.05934766125705,8.579466996170051,-0.012296856144230022,0.8782812111711639,-0.36107581509878106
2.056782279188294,8.396775782023521,-0.012135354034399795,0.8616351140338852,-0.390985408989665
2.0542482252520022,8.217570319500663,-0.01199849297790245,0.8450835766599935,-0.4220681925558598
2.0517403792600297,8.041831004659223,-0.011885754564693108,0.8286241837346876,-0.4542317922103175
2.0492537354767943,7.869538730903898,-0.011796567180405953,0.8122546139350675,-0.48738524589759225
2.0467834132880216,7.700674869519485,-0.011730310807903639,0.7959726373450638,-0.5214388055144386
2.044324666905779,7.535221250713086,-0.011686321403933367,0.7797761131920724,-0.5563037404299966
2.041872894196363,7.373160145097934,-0.011663894876221693,0.7636629879046234,-0.5918921412632979
2.0394236447125884,7.214474245551198,-0.011662290683530972,0.7476312934928757,-0.6281167230537994
2.036972627007578,7.0591466493775314,-0.011680735078475576,0.73167914625633,-0.66489062693157
2.0345157153032636,6.907160840708894,-0.011718424010231114,0.7158047458259414,-0.702127219357134
2.0320489555835173,6.7585006730693316,-0.011774525701639641,0.7000063745508271,-0.739739887956241
2.029568571179023,6.613150352030974,-0.011848182912592577,0.6842823972430533,-0.7776418329213312
2.027070967908813,6.471094417884206,-0.011938514898933507,0.6686312612976025,-0.8157458528884292
2.024552738841714,6.332317728241051,-0.012044619073436796,0.6530514972086338,-0.8539641241247763
2.0220106687398745,6.196805440485843,-0.012165572372654357,0.6375417195076215,-0.8922079717777253
2.019441738246038,6.064542993981373,-0.012300432330548934,0.6221006281539836,-0.930387631838208
2.016843127876365,5.935516091931685,-0.012448237856812141,0.6067270104144729,-0.9684120023612635
2.014212221881371,5.8097106827943925,-0.01260800971455949,0.5914197432740317,-1.0061883823604072
2.011546612039033,5.687112941125669,-0.01277875068865938,0.5761777964281122,-1.0436221966506922
2.0088441014463387,5.567709247729663,-0.012959445432239857,0.561000235914805,-1.080616704755761
2.006102708378592,5.45148616897087,-0.01314905997487159,0.5458862284546606,-1.1170726918156424
2.003320670289724,5.338430435092544,-0.013346540871487155,0.5308350465770344,-1.152888139233219
2.0004964480317673,5.228528917366397,-0.013550813966196356,0.5158460746243598,-1.1879578725771416
1.9976287303776465,5.121768603878117,-0.013760782739717278,0.5009188157402178,-1.222173184016819
1.9947164389386534,5.018136573729205,-0.013975326203074177,0.4860528999637167,-1.2554214263010768
1.9917587335765221,4.917619969407969,-0.014193296293414797,0.4712480935718531,-1.2875855750072713
1.9887550184200973,4.820205967050402,-0.014413514720154808,0.4565043098335538,-1.3185437554850048
1.9857049486083729,4.725881744274616,-0.014634769201030387,0.44182162136439207,-1.348168730603525
1.9826084378953879,4.634634445229864,-0.014855809017873815,0.4272002742999303,-1.3763273450937548
1.9794656672683735,4.5464511424518115,-0.015075339810834046,0.41264070453866036,-1.402879921969566
1.9762770947489383,4.4613187950592454,-0.015292017517119807,0.398143556342937,-1.4276796062416004
1.9730434665683245,4.379224202762263,-0.015504441345870488,0.3837097036283433,-1.450571650935787
1.9697658299322762,4.300153955077835,-0.015711145664112934,0.36934027431857863,-1.4713926403503297
1.9664455476193479,4.224094375064038,-0.015910590649490085,0.35503667819378404,-1.4899696456072238
1.9630843146891417,4.151031456788711,-0.01610115154294899,0.3408006387140847,-1.506119307991955
1.9596841776147902,4.080950795641481,-0.01628110630801899,0.3266342293547629,-1.5196468464959367
1.95624755619794,4.013837510479949,-0.01644862147150588,0.3125399150407753,-1.5303449876261745
1.9527772686758618,3.9496761564731884,-0.016601735881620023,0.2985205993093226,-1.537992818284633
1.9492765604908278,3.888450627371629,-0.016738342071085217,0.28457967784838095,-1.5423545668704381
1.9457491372640598,3.830144045798555,-0.016856164850513635,0.2707210990380531,-1.543178324488544
1.9421992026039068,3.7747386400363006,-0.016952736674752833,0.25694943203103854,-1.5401947283817594
1.9386315014858473,3.7222156056892644,-0.017025369211529015,0.2432699427026337,-1.5331156450844816
1.935051370078687,3.672554950577613,-0.017071120380472225,0.22968867740832777,-1.5216329137384914
1.9314647930699211,3.6257353213008727,-0.017086755893490003,0.21621255379872012,-1.5054172440493172
1.9278784697844618,3.581733810189071,-0.0170687039680264,0.2028494567898804,-1.4841174136669275
1.9242998907286344,3.5405257419545677,-0.017013001325568548,0.1896083359196698,-1.4573599838725098
1.9207374266810502,3.5020844404601448,-0.016915227699043047,0.17649929736055855,-1.4247498611911515
1.9172004331858536,3.466380977915094,-0.016770424636160852,0.16353367925896833,-1.385872191291433
1.9136993744355277,3.433383911926569,-0.016572992033611785,0.150724092060302,-1.3402963013584406
1.91024597231717,3.4030590207806064,-0.016316551950746182,0.13808439504412,-1.2875827352993674
1.9068533892687989,3.3753690549479387,-0.015993762795646113,0.12562956526700442,-1.2272948837870465
1.9035364582705876,3.3502735341647387,-0.01559605623493761,0.11337539457298614,-1.1590173231387477
1.9003119809741291,3.327728635630084,-0.015113251350380849,0.10133792480467063,-1.0823837326545187
1.8971991276089806,3.3076872404207975,-0.014532971174842894,0.08953250575997707,-0.9971180406069787
1.894219993064943,3.2900992304902843,-0.013839738768372242,0.0779723507211132,-0.9030928687119939
1.8914003975102738,3.2749121500639404,-0.013013552228477679,0.06666651048215826,-0.8004084452551669
1.8887710755048257,3.2620723421817104,-0.012027609728171053,0.05561737411051941,-0.6894909507094544
1.8863694910683226,3.251526597586455,-0.01084462300042792,0.0448182887014455,-0.5711984531195439
1.884242689985128,3.243224121999809,-0.00941062541095184,0.03425290736184618,-0.44690180911449406
1.8824520055562772,3.237118087769595,-0.007643512006674294,0.02389979959256107,-0.31847900857971967
1.8810817423927764,3.233164826612825,-0.0054066133599997,0.013750306662382679,-0.18814051336655452
1.8802603143223164,3.2313146944263984,-0.0024165111205727095,0.0038699998750235994,-0.058024119113213174
