x,y,v_x,v_y,omega
2.375,32.48,0.0,3.435897435897436,-5.183673469387755
2.3736492694362905,31.801621202281442,-0.013507305637093174,3.3478905412881157,-4.816907136959723
2.3698163744584555,31.14044161347573,-0.024821644141259393,3.2639053467690107,-4.489244926904268
2.363905632875722,30.49568622936048,-0.03428577168607541,3.1836484943834646,-4.195313315093501
2.3562586192865433,29.866635731860704,-0.04218436420571092,3.1068564806143186,-3.9306096822709478
2.3471646982286565,29.252620925506577,-0.048754846373159175,3.03329158292696,-3.691341808650472
2.3368696137009772,28.65301791689903,-0.054195998903633524,2.962738503148478,-3.4743003843000073
2.32558252932525,28.06724390930013,-0.058674844853635756,2.8950015728405227,-3.2767570388179217
2.3134818256557814,27.494753511534427,-0.062332191841053056,2.829902404816506,-3.096382258828649
2.3007198947869067,26.935035480756213,-0.06528711684769005,2.767277902965661,-2.931178921388889
2.2874271217423097,26.387609834165776,-0.06764061359828373,2.7069785629387093,-2.7794281739288627
2.273715203110299,25.852025276743383,-0.06947857272182252,2.648867011285205,-2.6396451383259882
2.259679923103278,25.327856901429413,-0.07087422734838478,2.5928167418544854,-2.5105424785412356
2.2454034835466454,24.814704125569328,-0.07189016821794109,2.53871101674636,-2.3910002974845788
2.2309564656792427,24.312188833337792,-0.07258001045608926,2.4864419055690217,-2.280041154707225
2.2163994869103694,23.819953698605218,-0.07298977723264093,2.4359094417567473,-2.176809247572111
2.2017846039528477,23.337660666570045,-0.07315905234257919,2.3870208785949605,-2.0805529932423505
2.187156504374935,22.864989575643847,-0.07312194343654735,2.33969003066702,-1.9906104007562389
2.1725535210801317,22.401636903689745,-0.07290788951148487,2.293836688873991,-1.9063967417162304
2.1580084981439676,21.94731462488916,-0.07254233985015472,2.2493860991318657,-1.8273941222501813
2.1435495315097186,21.501749165333067,-0.07204732649233397,2.206268496429062,-1.753142633586665
2.129200604036281,21.064680446968936,-0.07144194824204438,2.1644186872122577,-1.6832328181311325
2.1149821311177304,20.635861010835434,-0.07074278094346302,2.1237756741227414,-1.6172992356255091
2.1009114304111063,20.21505521162558,-0.06996422612277606,2.084282317975815,-1.5550149523473116
2.087003127002609,19.8020384765681,-0.06911880796219888,2.0458850325989917,-1.4960868073076052
2.073269503522109,19.396596622433286,-0.068217426842798,2.0085335087491547,-1.4402513345563688
2.0597208032094256,18.99852522517469,-0.06726957628403712,1.9721804638368097,-1.3872712411829333
2.0463654926853487,18.607629037329545,-0.06628352895673427,1.9367814146146245,-1.3369323573368415
2.0332104901394494,18.223721448832922,-0.06526649650225808,1.9022944703516087,-1.2890409883227156
2.020261363777768,17.846623987365287,-0.0642247671145546,1.8686801443247378,-1.2434216101210078
2.007522504646182,17.476165854760254,-0.06316382420130766,1.8359011817255995,-1.199914859015431
1.994997277334964,17.11218349635689,-0.062088448910869926,1.8039224023080391,-1.1583757737351255
1.982688151556654,16.754520200496106,-0.06100280887223283,1.7727105562998045,-1.1186722549397263
1.9705968171564443,16.403025725638955,-0.0599105351298623,1.7422341922716973,-1.0806837122253583
1.958724284748409,16.057555952831205,-0.0588147889504906,1.7124635358058091,-1.0442998733003641
1.9470709738609395,15.717972561457287,-0.05771831992420288,1.6833703779333598,-1.0094197337260524
1.9356367902116518,15.384142726421423,-0.05662351656867621,1.654927972425292,-0.975950628765728
1.9244211935081728,15.055938835067153,-0.05553245046611418,1.6271109411174083,-0.9438074115372249
1.9134232569804153,14.73323822230157,-0.05444691481146043,1.5998951865384325,-0.9129117239039217
1.9026417196869585,14.415922922529166,-0.0533684581231069,1.5732578111856135,-0.883191348435498
1.892075032498686,14.103879437124633,-0.05229841375961947,1.5471770428597098,-0.8545796313789927
1.8817213985432482,13.796998516285598,-0.05123792579475739,1.521632165530649,-0.8270149679496713
1.871578808791213,13.495174954206753,-0.05018797172559543,1.4966034552578102,-0.800440342418314
1.8616562827497773,13.198309133673234,-0.049037288688760464,1.4720547500773626,-0.7716296295094185
1.8519615009026174,12.906304997416242,-0.047910529782838614,1.4479866124925407,-0.7441366382603938
1.842489679592026,12.619068148732921,-0.04680768332307553,1.4243818743406549,-0.7178854898481515
1.8332360456251693,12.336507546019657,-0.045728656345493564,1.4012241527919889,-0.692805503340111
1.824195851322959,12.058535350220431,-0.04467328667660815,1.378497805200257,-0.6688307830958542
1.8153643873074334,11.78506678099625,-0.04364135347864831,1.3561878870415656,-0.6458998432844413
1.8067369933134394,11.516019981022456,-0.04263258646129158,1.3342801126963757,-0.6239552657940634
1.7983090672746904,11.251315887867701,-0.04164667392619766,1.3127608188511775,-0.6029433882219752
1.7900760729031457,10.99087811295093,-0.040683269789250624,1.2916169303165421,-0.5828140189944122
1.7820335459535288,10.73463282711166,-0.0397419997069188,1.2708359280761736,-0.5635201769848763
1.7741770993411259,10.482508652364267,-0.0388224664171081,1.2504058193977596,-0.5450178532803392
1.7665024272603178,10.234436559439388,-0.037924254390973425,1.2303151098510123,-0.5272657929933138
1.7590053084332136,9.99034977074514,-0.03704693388006903,1.2105527770914761,-0.5102252952375327
1.7516816086019356,9.750183668407935,-0.03619006443271005,1.1911082462805982,-0.4938600295796971
1.7445272823642377,9.513875707077538,-0.035353197944269506,1.1719713670233562,-0.47813586745251524
1.7375383744399944,9.281365331203752,-0.034535881298162555,1.1531323917145235,-0.4630207271677206
1.7307110204454466,9.052593896512946,-0.03373765864731511,1.1345819551935339,-0.44848443130426857
1.724041447242731,8.827504595431993,-0.032958073379841094,1.1163110556159843,-0.43449857536848907
1.7175259729240124,8.60604238622468,-0.032196669807344556,1.0983110364571487,-0.4210364067313852
1.7111610064823162,8.388153925622007,-0.03145299460961941,1.080573569569567,-0.4080727129450594
1.7049430472148086,8.173787504742762,-0.030726598065453643,1.0630906392228656,-0.3955837186267633
1.698868683898695,7.962892988114522,-0.030017035095681623,1.0458545270595216,-0.3835469901764889
1.6929345937749767,7.755421755618034,-0.02932386614150305,1.02885779790537,-0.3719413476633814
1.687137541370992,7.5513266471896685,-0.028646657898343992,1.012093286378283,-0.36074678327846094
1.681474377188845,7.3505619101275705,-0.027984983923125855,0.9955540842427133,-0.34994438580699966
1.6759476725150777,7.153256428449822,-0.02728206281454589,0.9775007325347714,-0.37412586201017367
1.6705573837552103,6.959550375698036,-0.026620824784129592,0.9595597949830861,-0.4000150305727312
1.6652952640132401,6.7694215732297565,-0.02600037263557188,0.9417282296997228,-0.4275014354104414
1.6601532512806316,6.582848438896537,-0.025419754690511522,0.9240031136324874,-0.4564771982732797
1.6551234787434927,6.399809963719772,-0.02487797068087817,0.9063816381351785,-0.48683677737290576
1.6501982839636946,6.220285689412535,-0.024373977117103342,0.8888611049371853,-0.5184767317648488
1.6453702170350777,6.04425568666878,-0.02390669216906658,0.8714389225003433,-0.5512954905092698
1.6406320478088467,5.871700534143393,-0.02347500009324295,0.8541126027535392,-0.5851931256450071
1.6359767722758927,5.702601298048222,-0.023077755236296862,0.836879758198162,-0.6200711280153591
1.6313976181880325,5.536939512290392,-0.022713785642303797,0.8197380993801371,-0.6558321849805979
1.6268880499950171,5.374697159079677,-0.022381896287850624,0.802685432727009,-0.6923799590413223
1.622441773169588,5.21585664993184,-0.02208087196644189,0.7857196587513706,-0.7296188663781817
1.6180527379888539,5.06040080699421,-0.021809479840898788,0.7688387706249317,-0.7674538542868482
1.6137151428367886,4.908312844618646,-0.02156647167975459,0.7520408531306999,-0.8057901764519383
1.6094234370897131,4.7595763511051565,-0.021350585790999407,0.7353240820041812,-0.8445331649593324
1.605172323644225,4.614175270536915,-0.021160548663882048,0.7186867236782281,-0.8835879978923631
1.6009567611451558,4.472093884624066,-0.020995076326809615,0.7021271354502527,-0.9228594612929009
1.596771965969808,4.333316794469535,-0.020852875426667448,0.6856437660950332,-0.962251704192609
1.5926134140239332,4.197828902164897,-0.02073264403208161,0.6692351569513616,-1.0016679853316135
1.588476842404702,4.065615392118119,-0.02063307216022998,0.6528999435164065,-1.0410104100805022
1.584358250986305,3.9366617120076803,-0.020552842023739415,0.6366368575879842,-1.080179655965777
1.5802539039848367,3.810953553248673,-0.020490627990945403,0.6204447300020886,-1.119074685067445
1.5761603315608128,3.6884768308463514,-0.02044509624929287,0.604322494021143,-1.1575924414090815
1.572074331520096,3.5692176625004706,-0.020414904157873098,0.5882691894376824,-1.1956275312942166
1.567992971177212,3.4531623468098296,-0.020398699270967373,0.5722839674687252,-1.233071884357106
1.5639135894491212,3.340297340410139,-0.020395118009941336,0.5563660965281682,-1.269814392889937
1.5598337992525435,3.230609233859486,-0.020402783955835422,0.5405149689783666,-1.3057405267816897
1.555751490284015,3.124084726063856,-0.020420305729448005,0.5247301089779298,-1.3407319211562863
1.5516648322691184,3.020710597009966,-0.02044627441951867,0.5090111815609522,-1.3746659335303757
1.5475722787758979,2.9204736785434946,-0.02047926051268692,0.4933580031037632,-1.4074151670266686
1.5434725716975184,2.8233608228972003,-0.020517810271107502,0.4777705533591633,-1.4388469558820065
1.5393647465209268,2.729358868634744,-0.02056044149480856,0.4622489892653902,-1.468822809188542
1.5352481385118542,2.638454603631395,-0.02060563859591885,0.4467936607681015,-1.4971978085146458
1.5311223899622055,2.5506347246617054,-0.020651846900567743,0.4314051289287802,-1.523819954789762
1.526987458664015,2.4658857931055884,-0.02069746608133495,0.41608418663239954,-1.548529459635081
1.5228436277950523,2.384194186217254,-0.020740842608291326,0.4008318822509396,-1.5711579762252759
1.5186915174252698,2.3055460433254495,-0.020780261089534725,0.3856495466671086,-1.5915277648429778
1.5145320978811,2.229927206247389,-0.020813934352161473,0.3705388241134848,-1.6094507886357152
1.5103667052367737,2.1573231531026025,-0.020839992091102672,0.35550170733439407,-1.6247277358484216
1.5061970592391467,2.0877189246063814,-0.020856467885169788,0.3405405776278224,-1.6371469661922922
1.5020252840160802,2.02109904180692,-0.02086128434549493,0.32565825036678636,-1.646483381326381
1.4978539319696242,1.957447414107797,-0.020852236119064466,0.3108580266244327,-1.6524972231128245
1.4936860113161408,1.8967472362933933,-0.02082697041577016,0.2961437515196051,-1.6549328090009134
1.4895250178089707,1.8389808731578476,-0.020782964655930113,0.28151987983585597,-1.6535172225316777
1.48537497126958,1.78412973024329,-0.020717500737975396,0.26699154930972185,-1.6479589898907345
1.4812404576668665,1.7321741091447116,-0.020627635289160843,0.2525646616760679,-1.6379467926509308
1.4771266776316152,1.6830930458759674,-0.020510165063351758,0.23824597101136646,-1.623148295219837
1.4730395024900262,1.636864130975237,-0.020361586352537982,0.22404317799594967,-1.6032092072336335
1.46898553917253,1.593463310453469,-0.02017804682242557,0.20996502722172475,-1.5777527622961205
1.464972205743543,1.5528646675010762,-0.01995528746744358,0.19602140230220477,-1.5463798837923473
1.461007819872699,1.515040186285038,-0.01968857124099775,0.18222340985816837,-1.508670438414121
1.4571017034409022,1.4799595015160172,-0.01937259307697115,0.16858343783205232,-1.464186165687838
1.4532643078312373,1.4475896412142149,-0.019001363019675623,0.15511516518597968,-1.4124761399183918
1.4495073666030627,1.4178947759129272,-0.018568049262070868,0.1418334878268813,-1.3530859971120666
1.445844085696017,1.3908359962747596,-0.01806475980838643,0.12875430855478942,-1.285572670742384
1.4422893868945041,1.3663711537581769,-0.01748222820674361,0.11589411661104998,-1.2095270365961484
1.4388602293602757,1.3444548163849568,-0.016809347135540244,0.10326925712115713,-1.1246076178223514
1.4355760487848963,1.3250384135735054,-0.01603245861825389,0.09089477099336347,-1.0305891367786062
1.4324593775516798,1.3080706669580557,-0.01513425371391092,0.07878269516113696,-0.9274296496430534
1.4295367476424805,1.2934984169434323,-0.014092045378083298,0.06693980498511054,-0.8153579854038564
1.4268400400938939,1.2812679304320191,-0.012875030107780615,0.055365060129005196,-0.694976845575001
1.4244085502856318,1.2713266588586194,-0.011439867974840418,0.04404765560499991,-0.5673628542339608
1.4222922459437009,1.2636251109301568,-0.0097231754444697,0.03296782367962385,-0.43412119164782315
1.4205572312002328,1.2581178413155207,-0.007626971990212292,0.022104872466752322,-0.29732551836848875
1.4192963744206712,1.2547610010035548,-0.004981595805402258,0.011463530652909221,-0.15926484903116347
1.418659205999346,1.2534971651978317,-0.0013900884078506051,0.0011748274043325152,-0.02197705357906865
