x,y,v_x,v_y,omega
2.375,32.48,0.0,3.0256410256410255,-4.816326530612245
2.374023033838524,31.911577845523926,-0.010283854331324494,2.957750074107083,-4.526390248426396
2.3712289091036824,31.355807546579488,-0.019127984982798094,2.8924635989922782,-4.262414558552719
2.366872903040092,30.812209731573933,-0.026724710423417,2.829618664224069,-4.021368199131757
2.3611764043378987,30.28033462939811,-0.03323843381019744,2.769066621837244,-3.800640248248826
2.3543317916587103,29.759759515390066,-0.038810120707572934,2.7106714203527082,-3.597973494405655
2.346506536860846,29.250086454043885,-0.043560982427843266,2.654308172764976,-3.4114096549979447
2.337846669063192,28.75094029379698,-0.047595520705357525,2.5998619350971572,-3.2392441051913696
2.32847970930216,28.26196687751942,-0.051004055726557744,2.5472266572982107,-3.0799882876182183
2.318517164789624,27.782831438817908,-0.053864833879081066,2.496304276401937,-2.932338360432957
2.30805665534496,27.313217159394117,-0.056245791854222967,2.4470039280590163,-2.7951489388046715
2.2971837314673618,26.852823866784632,-0.05820603843628831,2.3992412573039825,-2.6674110154358215
2.2859734329974275,26.401366855096605,-0.05979710335249261,2.352937813096326,-2.548233325588678
2.2744916288304773,25.9585758140181,-0.061063993141719924,2.308020514045789,-2.4368265634391832
2.2627961712607334,25.524193853559524,-0.06204608653979457,2.264421174991866,-2.332489968321568
2.2509378929259363,25.09797661377473,-0.06277789593175725,2.222076085900706,-2.2345998882875464
2.2389614697302127,24.6796914501964,-0.06328971665480305,2.180925635976426,-2.1425999994512765
2.22690616934895,24.269116686959958,-0.06360818209533309,2.1409139770387715,-2.0559929166851654
2.2148065018054433,23.866040930631456,-0.06375673941526577,2.1019887211559722,-1.9743329773313039
2.2026927860304917,23.47026243863439,-0.06375605821580071,2.0641006682868355,-1.8972200169830775
2.190591644173505,23.0815885369172,-0.0636243823840583,2.027203560315164,-1.8242939868455552
2.17852643364764,22.699835082141167,-0.06337783367767601,1.9912538583798973,-1.7552302870876948
2.1665176253980967,22.324825964215535,-0.06303067421226033,1.9562105408372943,-1.689735711043168
2.154583135630343,21.956392645478388,-0.06259553386935225,1.9220349195537196,-1.6275449119594683
2.142738617181945,21.594373733230213,-0.06208360769273185,1.888690472532297,-1.568417317919172
2.1309977158336895,21.238614582681887,-0.06150482755206841,1.856142691134312,-1.5121344321065877
2.119372296105133,20.888966927688493,-0.06086801169589277,1.8243589403750888,-1.4584974652028895
2.1078726404436514,20.545288536911585,-0.06018099526707187,1.793308330960814,-1.4073252547131943
2.0965076251758172,20.207442893290487,-0.059450744394338687,1.7629616018928207,-1.3584524327423306
2.0852848761300438,19.87529889491333,-0.058683456087490114,1.7332910126035632,-1.311727809371062
2.0742109064470275,19.54873057556378,-0.0578846458389946,1.704270243707459,-1.267012943527265
2.063291238759063,19.227616843384048,-0.05705922456063175,1.675874305552893,-1.224180877248737
2.0525305136318672,18.911841236240644,-0.056211566251957376,1.6480794538513721,-1.183115012620091
2.0419325859158466,18.601291692509648,-0.055345567600888275,1.6208631117380856,-1.1437081135375098
2.0315006104415323,18.295860336114295,-0.0544647005497886,1.5942037976866428,-1.1058614168959155
2.021237118311058,17.99544327475178,-0.05357205871836468,1.5680810587608893,-1.0694838398726914
2.011144084879731,17.69994041033923,-0.052670398453496754,1.5424754087396468,-1.034491271757835
2.0012229903852536,17.409255260792754,-0.05176217517257935,1.5173682706969291,-1.0008059403000402
1.9914748740639225,17.1232947923287,-0.05084957557827572,1.4927419236615151,-0.9683558438413324
1.9819080886517413,16.84197126422211,-0.04985342876047296,1.4685583721973372,-0.9346328052171661
1.972529561922761,16.565199960995717,-0.048867905228793765,1.444823767027854,-0.9023935523520493
1.9633371892054305,16.292897056971583,-0.04789391284836863,1.4215225911209173,-0.8715556788047485
1.954328707208744,16.02498160978339,-0.046932213432542245,1.3986400108600796,-0.8420422202337859
1.9455017201779974,15.761375434136113,-0.04598343952268655,1.37616183805861,-0.813781237723287
1.9368537230401714,15.502002982544038,-0.04504810929653414,1.3540744944895509,-0.7867054372743949
1.9283821218740664,15.246791232587466,-0.044126639820359165,1.3323649787375165,-0.7607518219599186
1.9200842520018746,14.995669580263868,-0.04321935883429342,1.3110208351950765,-0.7358613736135748
1.911957393965068,14.748569739041347,-0.04232651523735432,1.2900301250420005,-0.711978761255385
1.9039987876177211,14.505425644251698,-0.04144828841892839,1.2693813990595701,-0.689052073746975
1.8962056445441422,14.26617336248729,-0.04058479656611317,1.2490636721447308,-0.6670325744294261
1.888575158984553,14.030751005690519,-0.03973610406114141,1.2290663994002242,-0.6458744757260506
1.8811045174321128,13.79909864964722,-0.03890222806980889,1.2093794536871358,-0.6255347318965712
1.8737909070465162,13.571158256616059,-0.03808314441015635,1.18999310453562,-0.6059728483107567
1.8666315230134125,13.346873601844962,-0.03727879278040593,1.170897998318032,-0.5871507057713116
1.8596235749647407,13.126190203743093,-0.03648908141614006,1.152085139596392,-0.5690323985600576
1.8527642925625234,12.909055257492941,-0.03571389123877877,1.1335458735631005,-0.5515840850102585
1.8460509303375492,12.695417571901928,-0.03495307955042342,1.1152718695002046,-0.5347738495230802
1.8394807718644817,12.485227509306519,-0.03420648332397197,1.09725510518832,-0.518571575049249
1.8330511333461672,12.278436928354473,-0.03347392213197122,1.0794878522016174,-0.5029488251493114
1.8267593666721078,12.074999129502459,-0.03275520075286508,1.061962662030128,-0.48787873482874466
1.820602862009126,11.874868803076968,-0.032050111489047496,1.0446723529750501,-0.47333590941855574
1.8145790499760666,11.678001979756491,-0.03135843622736681,1.0276099977667972,-0.4592963308388829
1.8086854034488744,11.484355983342017,-0.030679948269395414,1.010768911859235,-0.44573727064329777
1.8029194390374785,11.293889385691475,-0.03001441395582394,0.9941426423569721,-0.43263720929571914
1.7972842184981794,11.106765374270633,-0.029303696984163772,0.9755837936519054,-0.46261158094789834
1.7917798360048034,10.923157209973997,-0.02863717136716378,0.957133725260058,-0.4940632686171837
1.7863980116796254,10.743044493817301,-0.028013611003130587,0.938789602705151,-0.5268839753890979
1.7811307018180624,10.566407354760027,-0.02743175596068983,0.9205487031608812,-0.5609674416807947
1.7759701049046814,10.39322642882549,-0.02689031681174302,0.9024084119395237,-0.5962092081581519
1.770908666846211,10.223482838851496,-0.026387978540576087,0.8843662193656765,-0.6325063820845461
1.7659390854994554,10.057158174798943,-0.025923404056850327,0.8664197180296155,-0.6697574061032523
1.7610543145670157,9.894234474546469,-0.025495237337252914,0.8485666004174938,-0.7078618284483282
1.756247566929291,9.73469420509955,-0.025102106217744308,0.83080465691849,-0.7467200735639465
1.7515123174773242,9.578520244142155,-0.02474262485558985,0.8131317742120128,-0.7862332120891092
1.7468423055076638,9.425695861858095,-0.024415395877677073,0.7955459340412572,-0.8263027291330921
1.742231536737532,9.276204702947808,-0.024119012228974234,0.7780452123828195,-0.8668302897263229
1.737674284996206,9.13003076876399,-0.02385205873235292,0.7606277790257693,-0.9077175002810844
1.733165093646639,8.98715839948667,-0.02361311336835168,0.7432918975776056,-0.9488656648357552
1.7286987767899724,8.847572256254498,-0.023400748280769795,0.7260359259189627,-0.9901755347844426
1.7242704203047334,8.71125730316448,-0.023213530511220472,0.7088583171338428,-1.0315470507099276
1.719875382772191,8.578198789046738,-0.023050022462908312,0.6917576209476434,-1.0728790748408046
1.71550929633958,8.448382228914127,-0.022908782090891703,0.674732485711402,-1.1140691125424793
1.711168067573719,8.321793384978669,-0.022788362812908143,0.6577816609776246,-1.1550130211250853
1.7068478783590062,8.198418247117306,-0.0226873131314373,0.6409040007209243,-1.195604704108177
1.7025451868958892,8.078243012658582,-0.022604175954005466,0.6240984672656334,-1.2357357889210026
1.698256728858758,7.9612540653490385,-0.022537487594744075,0.6073641359927294,-1.2752952858370776
1.6939795187758522,7.847437953343274,-0.022485776435845196,0.5907002009100503,-1.314169225741631
1.6897108516982864,7.736781366044426,-0.022447561222742742,0.5741059811830772,-1.352240274109559
1.6854483052307818,7.629271109601845,-0.022421348961514875,0.5575809287388102,-1.3893873183295975
1.6811897420032367,7.524894080849748,-0.022405632381066038,0.5411246370727314,-1.4254850252481384
1.6769333126700143,7.423637239443995,-0.02239888691600957,0.5247368514088735,-1.4604033655254003
1.672677459532915,7.325487577923489,-0.022399567158722107,0.5084174803859267,-1.494007101101408
1.6684209208943745,7.2304320893873175,-0.022406102720649648,0.4921666094685056,-1.5261552317661822
1.6641627362597342,7.13845773243812,-0.022416893433459525,0.47598451631251926,-1.5567003965287256
1.6599022525216178,7.049551392995429,-0.022430303809870815,0.45987168834739495,-1.5854882251999507
1.6556391312758652,6.963699842529209,-0.02244465667173669,0.44382884287596475,-1.612356635371735
1.6513733574373526,6.8808896922026435,-0.022458225838920615,0.4278569500352565,-1.6371350698267555
1.6471052493458016,6.801107342343528,-0.022469227756352763,0.4119572590080737,-1.6596436694091687
1.6428354705767467,6.724338926584842,-0.022475811917911082,0.3961313279254741,-1.6796923766087866
1.6385650437017827,6.650570249926421,-0.022476049923814835,0.38038105795265925,-1.6970799656839306
1.6342953662757145,6.579786719871159,-0.022467922982166905,0.3647087321027258,-1.7115929962489507
1.6300282293671915,6.511973269681285,-0.022449307633863134,0.3491170593696154,-1.723004689140146
1.62576583899504,6.447114272684619,-0.022417959441415634,0.33360922480580485,-1.7310737264235618
1.621510840886428,6.385193446441015,-0.022371494333447033,0.3181889461794968,-1.7355429821636497
1.6172663490375903,6.326193745461939,-0.02230736723326606,0.30286053781078903,-1.7361381978223394
1.6130359786365005,6.2700972410726905,-0.022222847515047557,0.28762898207602333,-1.7325666270501654
1.6088238840047815,6.216884986935952,-0.022114990713574815,0.2725000088370317,-1.7245156908316939
1.6046348023411872,6.166536868747073,-0.02198060574531159,0.25748018262483946,-1.7116517078810543
1.6004741042135777,6.119031436713573,-0.021816216650576835,0.2425769966751556,-1.6936188003735495
1.5963478519701253,6.074345719717087,-0.02161801749102669,0.22779897170892338,-1.6700381266542565
1.592262867555267,6.032455020639258,-0.021381818454850023,0.21315575542610754,-1.6405076678485457
1.588226811673176,5.993332693385334,-0.021102980304004825,0.19865821566784297,-1.6046029048195094
1.584248276925647,5.95694990391744,-0.02077633282787952,0.18431851557314285,-1.5618788803881063
1.5803368986010993,5.923275380490409,-0.020396070588412304,0.17015015207982637,-1.5118743690903362
1.576503488435875,5.892275162802431,-0.01995561536131518,0.15616792884625047,-1.4541191983884374
1.572760199285809,5.863912366659395,-0.019447428323592135,0.14238782002778994,-1.388146209587161
1.569120732855548,5.838146990912527,-0.01886274462652407,0.12882666151819966,-1.3135099354563606
1.5656006094462973,5.814935807796932,-0.018191185997165946,0.11550158180386637,-1.229814792713042
1.5622175297253755,5.794232396822512,-0.017420179486221724,0.1024290600321458,-1.1367563301944648
1.5589918763645731,5.775987404700487,-0.016534066416961438,0.08962348862075342,-1.0341794876085437
1.5559474320597024,5.760149133353114,-0.01551271573957363,0.07709515714108621,-0.9221570500747968
1.55311243638327,5.74666455830522,-0.014329344012345601,0.0648477380998946,-0.8010877724548382
1.5505211790153792,5.7354808241828295,-0.012947049333874064,0.052875778977898046,-0.6718040626668345
1.5482164605710658,5.726547083927709,-0.011313144816793715,0.041163592128624624,-0.5356604532773268
1.546253544250833,5.719816127871926,-0.009349132238289684,0.029688576879600904,-0.3945471446798545
1.5447070896125505,5.7152443496043865,-0.0069293376383667005,0.018435404883975687,-0.25075044554314785
1.543686255224738,5.712786086063609,-0.003816287496503401,0.0074410534399964815,-0.10659087712363596
