x,y,v_x,v_y,omega
2.375,32.48,0.0,3.948717948717949,-5.061224489795919
2.3734611424873187,31.70154670336559,-0.015388575126811802,3.835815017626102,-4.653844273583215
2.3691269151998515,30.945085603219667,-0.02795369774786157,3.7287959838331637,-4.296208556104836
2.3625119594673176,30.209487850802425,-0.038195859577476905,3.6271815403392518,-3.9805563450513963
2.3540404018268073,29.49371509784737,-0.04651971682762583,3.530545989211283,-3.7005460118790583
2.3440630132492477,28.79680956442111,-0.053254168947972066,3.4385093450513056,-3.450961844652218
2.3328708122046167,28.117885537669327,-0.05866784149833521,3.3507309224665396,-3.227487883732745
2.320705916194814,27.456122038890136,-0.06298111859969252,3.266904065325356,-3.0265321309083055
2.3077702482925453,26.810756455542077,-0.0663755604229938,3.1867517681552617,-2.845088844013916
2.2942325600426927,26.181078978285434,-0.06900132207553236,3.1100230044111385,-2.680629884983277
2.2802341245121878,25.566427715654665,-0.07098303322951788,3.036489621896558,-2.531018413687625
2.265893372795423,24.966184383624974,-0.072424483938127,2.9659436984003693,-2.394439899216505
2.2513096865450897,24.37977048632765,-0.07341237856521068,2.8981952745728816,-2.2693466465926275
2.2365665128967116,23.806643918985806,-0.07401935791856905,2.8330703988455594,-2.154412941277888
2.2217339327555323,23.24629593584359,-0.07430644349322547,2.770409432576596,-2.0484985867614904
2.2068707861098726,22.698248435205493,-0.07432502296336724,2.7100655738043633,-1.9506191154058097
2.192026436843883,22.1620515212388,-0.074118469696532,2.651903565862559,-1.8599213344428431
2.177242242980681,21.63728130832699,-0.0737234689354864,2.5957985632555243,-1.7756631596804011
2.1625527853041104,21.123537938797508,-0.0731711078302222,2.541635132039297,-1.6971969122967552
2.1479868970657203,20.6204437890121,-0.07248777455367521,2.489306365814799,-1.623955425989925
2.13356852936529,20.127641842276383,-0.07169590245062782,2.438713101542377,-1.5554404451347765
2.119317480328422,19.644794209932023,-0.07081458791805516,2.38976322190118,-1.4912128986947257
2.1052500110342267,19.17158078444495,-0.06986010502389592,2.342371032969591,-1.4308847163030818
2.0913793669934955,18.707698010378927,-0.06884633538341642,2.296456707690624,-1.3741119173296334
2.0777162206293784,18.252857760911603,-0.06778512825775436,2.2519457869825987,-1.3205887547788973
2.064269047502418,17.80678630906158,-0.0666866030118505,2.208768731517666,-1.2700427364911397
2.0510444468201445,17.369223384093473,-0.06555940381088629,2.1668605181633693,-1.222230378601867
2.0380474149766665,16.93992130468709,-0.06441091462389255,2.126160275900471,-1.1769335723020211
2.025281579399656,16.518644181424893,-0.06324744114621282,2.0866109567214948,-1.133956465975814
2.0127493987774576,16.10516718199264,-0.06207436507576899,2.048159037601032,-1.0931227818212994
2.000452334747441,15.699275853219667,-0.06089627522439671,2.0107542501286897,-1.0542734998960834
1.9883909993079978,15.300765494724494,-0.05971707917003696,1.9743493348230319,-1.017264853816203
1.9765652815386974,14.909440579491015,-0.058540098522966336,1.9388998175117773,-0.9819665915733673
1.964974456650241,14.525114217191891,-0.057368150361598945,1.9043638054794498,-0.948260462522178
1.953617279917227,14.147607656508288,-0.05620361696854058,1.870701801356593,-0.9160388978402768
1.942492067655585,13.776749823076521,-0.05504850564787744,1.8378765329610909,-0.8852038569321127
1.9315967670791934,13.412376890029659,-0.05390450011603876,1.8058527975075296,-0.8556658165322729
1.9209290165956214,13.054331878400962,-0.052773004719680716,1.774597318779432,-0.8273428828285065
1.910486197870073,12.702464284921476,-0.05165518253580555,1.744078616015415,-0.8001600098976895
1.9002654807920505,12.356629734980231,-0.05055198824441872,1.7142668833970436,-0.77404831023509
1.8902638623149586,12.016689658725916,-0.04946419652649959,1.6851338791461004,-0.7489444452435856
1.8804781999997988,11.682510988476864,-0.048392426625098094,1.6566528233444382,-0.7247900853042424
1.8709052409761844,11.353965875774172,-0.047337163611048026,1.6287983036824802,-0.701531430529418
1.8615416469336892,11.03093142656348,-0.046298776813902945,1.6015461884244349,-0.679118784550566
1.8523840156712357,10.713289453125956,-0.04527753581063344,1.5748735459508156,-0.6575061747531614
1.84342889965945,10.400926241500564,-0.044273624307222086,1.5487585703031195,-0.636651013271888
1.8346728220087494,10.093732333248997,-0.04328715219978577,1.5231805122125488,-0.616513793826222
1.8261122901826923,9.791602320513203,-0.04231816606078478,1.498119615145381,-0.5970578201311566
1.8177533846217369,9.494435745313847,-0.04127088954876734,1.4735461368481846,-0.5755720164554249
1.809601228436696,9.202135755514568,-0.040250672301641754,1.4494537611445917,-0.5550678422084484
1.8016504657004688,8.914607847663493,-0.03925695506062989,1.4258253173661446,-0.5354888348174098
1.7938958545607986,8.631760874051874,-0.038289156336071814,1.4026444187500489,-0.5167823954120407
1.7863322710910121,8.353506890424928,-0.03734667836179386,1.3798954175194158,-0.4988994824518127
1.7789547120366138,8.079761012370888,-0.036428912182188064,1.3575633630209982,-0.4817943328847971
1.7717582966195695,7.810441279800877,-0.035535241988256895,1.3356339626791232,-0.4654242080792621
1.764738267540424,7.5454685289783505,-0.034665048803196735,1.3140935455461369,-0.4497491620734626
1.7578899912996444,7.284766271598823,-0.0338177136046003,1.2929290282491277,-0.4347318299568702
1.751208957943311,7.028260580458888,-0.03299261995873363,1.2721278831502174,-0.4203372344320392
1.744690780324206,6.775879981288515,-0.03218915623231749,1.2516781085535162,-0.40653260881450476
1.7383311929571155,6.52755535035255,-0.03140671743858667,1.2315682008061222,-0.3932872349120881
1.7321260505365648,6.283219817456594,-0.030644706766919143,1.2117871281534527,-0.3805722943877846
1.7260713261759877,6.0428086740191596,-0.02990253683885438,1.1923243062208928,-0.36836073235467176
1.7201631094193306,5.806259285896637,-0.029179630727715067,1.1731695750043398,-0.35662713207927954
1.7143976040691402,5.573511010670018,-0.02847542277418846,1.1543131772618422,-0.34534759978358864
1.7087711258691205,5.344505119123106,-0.027789359226009055,1.1357457382072675,-0.3344996586369984
1.703280100073897,5.11918472066089,-0.027120898726225556,1.1174582464148766,-0.324062151119719
1.697921058934139,4.897494692434311,-0.02646951267135598,1.0994420358509192,-0.31401514901941274
1.6926906391212064,4.679381611953723,-0.025834685457970526,1.0816887689549495,-0.30433987039466653
1.6875855791120256,4.46479369298827,-0.025215914633836885,1.0641904206995791,-0.29501860290302695
1.6826027165518749,4.253680724562024,-0.02461271096766855,1.0469392635628685,-0.2860346329487419
1.677738985610139,4.04599401287048,-0.024024598449692656,1.0299278533525789,-0.2773721801567902
1.6729914143418032,3.8416863259526117,-0.023451114233663816,1.0131490158260914,-0.2690163367259238
1.6683571220654805,3.6407118409646024,-0.02289180852956388,0.9965958340540044,-0.26095301125487524
1.6638381102100466,3.4431963420401246,-0.02229831002477387,0.9785591551907639,-0.28711296706403133
1.659433830029523,3.249277036232094,-0.02174449178046299,0.9606339028895292,-0.31493200654960435
1.6551364282849161,3.0589319384507725,-0.021229525665607495,0.9428170749236768,-0.34430224421180644
1.6509382229370841,2.8721396524708993,-0.02075252781271131,0.9251057848750601,-0.3751182682903362
1.64683171370304,2.6888793481983875,-0.020312564527729875,0.9074972578500492,-0.4072769067425157
1.6428095914824827,2.50913073975531,-0.019908657677843826,0.8899888265807135,-0.44067699854712133
1.638864746755334,2.3328740643072585,-0.019539789593644087,0.8725779278998166,-0.47521916939279235
1.6349902770440794,2.160090061559199,-0.019204907518900853,0.8552620995807807,-0.5108056108178001
1.6311794935284012,1.9907599538474905,-0.018902927637880786,0.838038977536287,-0.5473398618689808
1.6274259268939006,1.8248654267566877,-0.018632738707123224,0.8209062933717356,-0.5847265923416202
1.6237233324916223,1.6623886101902698,-0.01839320531566178,0.8038618722924331,-0.6228713866487932
1.6200656948805703,1.5033120598244132,-0.01818317079485742,0.7869036313661327,-0.6616805273477809
1.6164472318214578,1.3476187388732548,-0.01800145979626773,0.7700295781454679,-0.7010607773223089
1.6128623977865022,1.1952920000929161,-0.01784688055328928,0.7532378096579321,-0.7409191595819765
1.6093058870472081,1.04631556794968,-0.01771822683964988,0.7365265117744171,-0.7811627335937897
1.6057726363997262,0.9006735208751415,-0.01761427963516793,0.7198939589709793,-0.8216983670044637
1.6022578275855586,0.7583502735277925,-0.01753380850650917,0.7033385145025214,-0.8624325015453427
1.598756889464115,0.6193305589763867,-0.01747557270792654,0.6868586310115279,-0.9032709118334641
1.595265499992909,0.4835994107152395,-0.017438322004134827,0.6704528515999509,-0.9441184556914601
1.5917795880710441,0.351142144415455,-0.017420797214513447,0.6541198113979078,-0.9848788145044935
1.5882953353021216,0.2219443393087488,-0.017421730474710063,0.6378582396691224,-1.025454222013023
1.5848091777338114,0.09599181909182164,-0.01743984520839347,0.6216669625001514,-1.0657451798045436
1.581317807633139,-0.026729367771046952,-0.01747385579832975,0.6055449061285119,-1.1056501576141375
1.577818175359098,-0.14623296848129996,-0.017522466942079973,0.5894911009740504,-1.1450652763712437
1.5743074913975517,-0.26253254722355024,-0.017584372673383395,0.5735046864484393,-1.1838839717371317
1.5707832286276502,-0.3756415075313697,-0.01765825502563213,0.5575849166297784,-1.2219966356628413
1.567243124894218,-0.48557311588466234,-0.017742782308689205,0.5417311669031707,-1.2592902332598794
1.563685185966892,-0.5923405267433921,-0.01783660696456864,0.5259429416841067,-1.29564789201527
1.5601076889743264,-0.6959568092477895,-0.017938362961089645,0.5102198833598598,-1.3309484600990458
1.5565091864106746,-0.7964349758442992,-0.0180466626754291,0.4945617826052149,-1.3650660302076791
1.5528885108219912,-0.8937880131301341,-0.018160093211402863,0.4789685902531236,-1.3978694250650796
1.5492447802923348,-0.9880289152483144,-0.01827721208516211,0.4634404309287046,-1.4292216403704805
1.5455774048634559,-1.0791707202098664,-0.018396542203626003,0.4479776186868225,-1.4589792406512185
1.541886094038275,-1.1672265495715166,-0.018516566048183684,0.43258067492967633,-1.4869917031661424
1.5381708655371824,-1.2522096519566617,-0.01863571896274109,0.41725034892174007,-1.5131007047399523
1.5344320554979327,-1.3341334509753509,-0.0187523814297561,0.40198764126518555,-1.5371393462321352
1.5306703303349463,-1.4130115981768157,-0.018864870200110868,0.3867938307494533,-1.5589313093187542
1.526886700502735,-1.488858031756088,-0.018971428122001994,0.3716705050432685,-1.57828994048346
1.5230825364415552,-1.5616870418358744,-0.019070212489795058,0.3566195957546211,-1.5950172577111739
1.519259587022074,-1.631513343255449,-0.019159281705017735,0.34164341844114515,-1.6089028765522881
1.5154200008508774,-1.6983521569200448,-0.019236580006946804,0.3267447182048402,-1.619722854266719
1.511566350851435,-1.7622193008947917,-0.019299919987477862,0.3119267215426024,-1.6272384540889357
1.5077016625975932,-1.8231312925624081,-0.019346962550938963,0.2971931951335908,-1.6311948368954474
1.5038294469515794,-1.8811054632961373,-0.019375193909200766,0.282548512203689,-1.6313196956090448
1.4999537376498724,-1.9361600872146028,-0.019381899107867848,0.267997726980974,-1.62732185986238
1.4960791345943205,-1.9883145256616146,-0.01936413144765126,0.2535466574891414,-1.6188899167052824
1.492210853752029,-2.037589389053835,-0.019318676975264217,0.23920197643308802,-1.6056909203157737
1.4883547847609147,-2.0840067176052983,-0.01924201293587908,0.22497130908157353,-1.5873693039229224
1.4845175576026062,-2.1275901820781655,-0.019130258647207764,0.21086333564709517,-1.563546166543154
1.480706620080046,-2.168365304983226,-0.01897911657839068,0.19688789340350116,-1.533819194483464
1.4769303283886406,-2.206359701346024,-0.018783800335665044,0.18305607022445627,-1.4977636055176118
1.4731980539047136,-2.241603335941633,-0.018538944503603782,0.16938027573160422,-1.454934689955117
1.4695203106127361,-2.274128790307458,-0.018238488416171178,0.15587426792665776,-1.4048727915200858
1.4659089096527893,-2.303971527191848,-0.01787552118329907,0.14255310091724396,-1.3471119522526716
1.462377150792042,-2.331170131475176,-0.017442067424173403,0.12943294191605123,-1.2811939718560297
1.4589400660395553,-2.355766493905712,-0.016928780100692948,0.11653068238932257,-1.2066903226105803
1.4556147395008505,-2.3778058861947713,-0.01632448528635566,0.10386324050124812,-1.1232351824728597
1.4524207421296857,-2.397336852984836,-0.015615488425291304,0.09144642739940392,-1.030573617867161
1.4493807438322823,-2.4144108207818533,-0.014784494548744058,0.07929325057074038,-0.9286291263729676
1.4465214040790448,-2.429081306462834,-0.013808902983631174,0.06741160623909613,-0.8175930750790371
1.4438747053434868,-2.4414026248130796,-0.012658084371948874,0.05580157726339094,-0.6980325674014021
1.4414800010413171,-2.45142810140986,-0.01128895864974914,0.04445318870440633,-0.5709992068461872
1.4393872579492637,-2.459208095061463,-0.0096384722707844,0.03334674781164662,-0.43809632230214657
1.4376624992768514,-2.4647888003306377,-0.007609114453337878,0.02246030488006974,-0.30143176955141693
1.4363983300723444,-2.4682143539802226,-0.005032577591732788,0.011795231615804144,-0.16336937070082636
1.4357429882540784,-2.46954119102206,-0.0015208405909271248,0.0014731388025899551,-0.026043919294752388
