x,y,v_x,v_y,omega
2.375,32.48,0.0,2.2051282051282053,-2.7346938775510203
2.374417898894248,31.978107246744983,-0.0050617487456678725,2.159156605784957,-2.5865129351560827
2.372746413475807,31.486610746936698,-0.009472907066861599,2.114726001243624,-2.4500598346772775
2.3701261391051816,31.005165823213492,-0.01331208746031754,2.071751596349447,-2.324111861274265
2.366680773647246,30.533446568155988,-0.01664761217390796,2.030154969368005,-2.207598215414647
2.362519313535886,30.07114445101786,-0.019538997490088975,1.989863440528733,-2.0995784490803633
2.3577379355473633,29.617967060478463,-0.022038202410111167,1.9508095206834308,-1.9992243266279843
2.352421613753184,29.17363696643973,-0.024190682756663764,1.9129304274794607,-1.9058045093507192
2.3466455125876404,28.737890686516977,-0.02603628390023539,1.876167658805351,-1.8186715783656144
2.3404761900395075,28.310477745015525,-0.027609999127007703,1.8404666151203037,-1.7372510018043599
2.3339726393303613,27.891159813945677,-0.028942615735133844,1.8057762637479393,-1.6610317249255047
2.3271871928164902,27.479709927085132,-0.030061266994178968,1.7720488393872589,-1.5895581198437239
2.320166308046557,27.07591175931136,-0.030989904918285766,1.7392395760368293,-1.522423078247414
2.312951252765015,26.679558964443558,-0.031749706225554224,1.7073064662918989,-1.4592620681697832
2.3055787030467534,26.290454565691356,-0.03235942175933053,1.6762100445968051,-1.3997480064578565
2.2980812665819617,25.908410393534936,-0.03283567793451345,1.6459131915459864,-1.3435868234978927
2.290487941322212,25.533246566481036,-0.03319323736765691,1.6163809567487817,-1.2905136171366083
2.2828245181851448,25.16479101067071,-0.03344522469379551,1.5875803981236092,-1.2402893094743075
2.2751139352442613,24.802879014771822,-0.03360332261823612,1.559480435779789,-1.1926977340004037
2.267376589760217,24.447352816984676,-0.033677942460407985,1.5320517188910558,-1.1475430919507177
2.2596306135065163,24.098061221332394,-0.033678372789165634,1.5052665041722586,-1.1046477262332548
2.2518921160777,23.754859240706715,-0.03361290920054072,1.479098544746692,-1.0638501691502675
2.2441910266065648,23.417609665203297,-0.0333530862006363,1.4535064596308436,-1.0216965817703412
2.2365539278146196,23.086180739639733,-0.033056468511928117,1.4284841974436255,-0.9816946309954335
2.2289887150913636,22.76044398015637,-0.0327279899511678,1.4040093632812702,-0.9437067558394978
2.221502211156087,22.440275922663105,-0.03237204426862897,1.3800607018775688,-0.9076058525652236
2.214100283426947,22.125557869096603,-0.03199254468041683,1.3566180247876543,-0.8732743549231377
2.2067879484936164,21.816175649784856,-0.03159297647897661,1.3336621431405826,-0.8406034059947861
2.1995694651867455,21.512019400695504,-0.031176443580773747,1.3111748054624845,-0.8094921114695514
2.1924484175530043,21.21298335445314,-0.030745709756104512,1.2891386401232818,-0.7798468654282732
2.185427788884415,20.91896564410836,-0.030303235188149383,1.2675371020052066,-0.7515807407845607
2.178510027811488,20.62986811872915,-0.029851208924259166,1.246354423031422,-0.7246129374704723
2.1716971073485465,20.345596169964253,-0.02939157771001407,1.2255755662285666,-0.6988682822673259
2.1649905776739744,20.066058568799676,-0.02892607163409335,1.2051861830286286,-0.6742767748919285
2.1583916133358856,19.791167311793863,-0.02845622695798381,1.185172573543676,-0.6507731755680061
2.151901055493069,19.520837476135554,-0.02798340645781062,1.1655216495720486,-0.6282966298544475
2.1455194497304397,19.254987082921307,-0.02750881756505404,1.1462209001170454,-0.6067903269766793
2.1392470799263186,18.99353696809764,-0.02703352855773918,1.1272583592191956,-0.586201188324064
2.1330839985945214,18.736410660556494,-0.026558483023103343,1.1086225759212063,-0.5664795831423646
2.127030054076461,18.48353426691246,-0.02608451278611919,1.0903025862008207,-0.547579068772653
2.1210849149164277,18.23483636252641,-0.025612349475038224,1.0722878867213652,-0.5294561530722229
2.1152480917161904,17.990247888373226,-0.025142634874853062,1.0545684102628379,-0.5120700769039943
2.109518956732368,17.749702053381554,-0.02467593020186137,1.037134502708198,-0.4953826148027783
2.1038967614511983,17.513134241901042,-0.024212724417008214,1.0199769014701747,-0.47935789212323504
2.0983806523498014,17.280481925977817,-0.023753441682094648,1.0030867152535496,-0.46396221714856994
2.0929696850304933,17.05168458214215,-0.023298448051016985,0.9864554050565953,-0.4491639267936877
2.087666431904397,16.82679442561546,-0.022816796523733855,0.969111173436344,-0.4542813827894908
2.082471523363463,16.605878571762904,-0.022356321223519014,0.9518962513684965,-0.4618165653931792
2.077380004968238,16.388907726830645,-0.021917751778438337,0.934806748042459,-0.47163800448243515
2.0723867734453973,16.17585347340873,-0.021501652768000448,0.9178389338872399,-0.48361847774872807
2.0674866130620786,15.966688234225256,-0.02110843752172983,0.9009892329255583,-0.49763470549368094
2.062674228951648,15.76138523763364,-0.020738380829838716,0.8842542156971785,-0.5135670577930264
2.057944277631739,15.559918484665602,-0.020391630647633927,0.8676305927205443,-0.5312992727888892
2.0532913949373777,15.36226271752924,-0.020068218868551438,0.8511152084651982,-0.5507181849250803
2.048710221575528,15.168393389437512,-0.019768071234486997,0.8347050358107208,-0.5717134619856719
2.0441954264922337,14.978286635657607,-0.019491016446330906,0.8183971709710447,-0.5941773498346437
2.039741728229695,14.791919245676343,-0.019236794532269015,0.8021888288660209,-0.6180044237840618
2.035343914437944,14.609268636380367,-0.019005064526434332,0.7860773389250701,-0.643091345540208
2.0309968596942323,14.430312826153255,-0.018795411505842217,0.7700601413106796,-0.6693366246913661
2.026695541772705,14.255030409794,-0.018607353029177452,0.7541347835524272,-0.696640383707566
2.0224350564974074,14.083400534163175,-0.018440345016886565,0.7382989175851773,-0.7249041254213542
2.018210631303031,13.915402874464245,-0.018293787108128304,0.7225502971881235,-0.7540305019494236
2.0140176376200585,13.751017611067795,-0.018167027526415386,0.7068867758244999,-0.7839230839973779
2.0098516021940664,13.590225406786193,-0.018059367482208342,0.6913063048850816,-0.8144861294636669
2.005708217442827,13.433007384505068,-0.017970065137265102,0.675806932342099,-0.845624350223325
2.0015833509495415,13.279345105075972,-0.017898339152175147,0.6603868018239528,-0.877242675926995
1.9974730541859955,13.129220545371819,-0.017843371835181865,0.6450441521251935,-0.9092460135951659
1.9933735705556346,12.982616076402792,-0.01780431190708696,0.6297773171706929,-0.9415390017207947
1.9892813428435439,12.839514441385507,-0.01778027689370148,0.6145847264578609,-0.9740257575146564
1.9851930201580672,12.699898733652134,-0.017770355153921752,0.5994649060062396,-1.0066096158358742
1.9811054644473431,12.563752374278675,-0.017773607548026,0.5844164798499335,-1.03919285824406
1.9770157566733961,12.431059089302678,-0.017789068747165616,0.5694381721152383,-1.071676430488178
1.972921202726632,12.30180288639006,-0.017815748181218026,0.5545288097336288,-1.103959646609454
1.9688193391647077,12.175968030798042,-0.01785263061812462,0.5396873258491326,-1.1359398776801586
1.9647079388618207,12.053539020466634,-0.017898676363501165,0.5249127639892057,-1.1675122230258101
1.960585016657587,11.934500560053703,-0.017952821064617073,0.5102042830797655,-1.1985691615842684
1.956448835098918,11.818837533708734,-0.018013975097723407,0.4955611633982326,-1.2290001808407742
1.9522979103737896,11.706534976356977,-0.018081022512088835,0.4809828135735659,-1.2586913805431597
1.9481310185426421,11.59757804323866,-0.018152819497887725,0.4664687787596269,-1.2875250481471356
1.9439472021814952,11.49195197741657,-0.018228192338173004,0.45201875012810155,-1.315379202670081
1.9397457775609,11.389642074929089,-0.018305934797439378,0.4376325758499958,-1.3421271033475886
1.935526342496775,11.290633647223853,-0.01838480489060246,0.4233102737607556,-1.367636719197859
1.931288785023217,11.19491198045899,-0.01846352096642305,0.4090520459337125,-1.3917701553172421
1.927033293053824,11.102462291203299,-0.018540757028297716,0.3948582954201337,-1.414383031475041
1.922760365217262,11.013269678003017,-0.01861513720267753,0.3807296454518841,-1.4353238083762885
1.9184708230751046,10.927319068209918,-0.01868522925086546,0.36666696144463384,-1.4544330568611956
1.9141658249558882,10.844595159382468,-0.01874953700319166,0.35267137618535666,-1.471542665373801
1.9098468816693894,10.76508235447793,-0.018806491575057944,0.3387443186367227,-1.4864749813547091
1.9055158744001004,10.688764689947977,-0.01885444120136779,0.32488754684111093,-1.4990418829320782
1.9011750751196264,10.615625755733909,-0.018891639498407217,0.31110318545512483,-1.5090437786030633
1.8968271699054928,10.54564860603066,-0.01891623192883975,0.2973937684861553,-1.5162685348087126
1.8924752856102267,10.478815659554698,-0.01892624020390895,0.283762287826566,-1.5204903348370689
1.8881230203918402,10.415108587914656,-0.01891954430379965,0.2702122481737943,-1.521468477965865
1.883774478698291,10.354508190555446,-0.018893861727062974,0.25674772886281305,-1.518946136087784
1.8794343113989518,10.296994254642993,-0.018846723484582294,0.2433734529846141,-1.5126490975764597
1.8751077618830287,10.242545398205369,-0.01877544621909608,0.23009486386429562,-1.5022845467914678
1.87080071910974,10.191138894890571,-0.018677099635588678,0.21691820843830364,-1.4875399552216388
1.866519778816183,10.142750478910585,-0.018548468134472147,0.20385062617025454,-1.4680822009654158
1.862272314395573,10.097354129222929,-0.018386005088222204,0.190900240678924,-1.4435570930569401
1.8580665593987267,10.05492183291874,-0.018185777493051884,0.17807624892272236,-1.413589564735802
1.8539117042637474,10.015423329389616,-0.01794339759372566,0.16538899915661354,-1.3777849274484217
1.8498180108724562,9.978825839503504,-0.017653936243589383,0.15285004333131402,-1.3357317622307685
1.8457969500821356,9.945093788270167,-0.01731180975919894,0.14047214130638552,-1.2870072897274563
1.8418613698446813,9.914188536069307,-0.01691062708822982,0.12826918217934133,-1.2311864316566197
1.8380257054941782,9.886068143429217,-0.016442975959620916,0.11625597121276232,-1.167856281188353
1.8343062502337055,9.860687208698643,-0.0159001132618806,0.10444780905310445,-1.0966383446617733
1.8307215143731699,9.837996837613819,-0.01527150291669027,0.09285976559754769,-1.017221644520171
1.8272927190158397,9.817944828235138,-0.014544108886180612,0.08150553334748703,-0.9294103556014919
1.8240444977040897,9.800476179547228,-0.013701293824688831,0.07039575959084993,-0.8331894741975994
1.821005924464713,9.785534043280197,-0.012721082169892015,0.059535860122470224,-0.728809742029766
1.818212060006889,9.773061203110984,-0.011573391376404025,0.04892361960981137,-0.6168861914327816
1.815706334774326,9.763002016962886,-0.010215523689359657,0.03854756428668458,-0.49848993678021086
1.8135443472544268,9.755304380468,-0.00858436778802407,0.028388405234044636,-0.37518891666446513
1.8118003659776116,9.749920447132403,-0.00658068679297847,0.018428406379852266,-0.24896806281174982
1.8105805836369044,9.746802778916017,-0.004026116169692294,0.008681752023517599,-0.12195537786350616
