x,y,v_x,v_y,omega
2.375,32.48,0.0,3.0256410256410255,-6.408163265306122
2.3737123232459805,31.911609384524414,-0.013554492147574605,2.957418084628261,-6.022002762358371
2.3700289270691726,31.355927769499736,-0.025218099187243076,2.891862073526254,-5.670498056684828
2.364285098254498,30.81246499431535,-0.03524325675670188,2.8287987178883367,-5.3495827703145595
2.356771660565166,30.28076244294509,-0.0438455610257433,2.768070243903884,-5.055759808731861
2.34774140449476,29.760390113903433,-0.05120976603115672,2.7095332196924877,-4.786009631112352
2.3374144814367632,29.250944065615172,-0.05749468721091485,2.6530567622892063,-4.537715246142757
2.325982948837782,28.752044174824995,-0.06283723488362622,2.5985210355021544,-4.308600516738889
2.313614615257959,28.263332158227513,-0.06735575016714193,2.5458159813134444,-4.096679132973211
2.300456305115361,27.784469817157348,-0.07115277764967799,2.494840240477744,-3.9002121940709236
2.286636640106085,27.315137472680213,-0.07431738034270055,2.445500227702625,-3.717672780726867
2.272268416325386,26.855032564303922,-0.076927080506764,2.397709334153073,-3.5477162357029783
2.2574506418371114,26.40386839017399,-0.0790494930540222,2.351387235635697,-3.3891551303730707
2.242270288011246,25.961372970320664,-0.08074370511298265,2.3064592891361366,-3.240938096825003
2.226803798744223,25.52728801749823,-0.08206144506620354,2.262856003731626,-3.102131863333948
2.2111183942179755,25.101368002564545,-0.08304807626271747,2.220512574517669,-2.971905955815949
2.1952731997775285,24.683379303311753,-0.08374344416304295,2.179368470248549,-2.8495196269441236
2.179320225532513,24.273099427270665,-0.0841826005213302,2.1393670670260434,-2.7343106537305646
2.1633052181969092,23.870316300343923,-0.08439642406397403,2.1004553216765443,-2.625685707913548
2.1472684033025087,23.474827614231472,-0.08441215377182094,2.062583479507113,-2.5231120547754746
2.131245133120053,23.08644022654007,-0.08425384814876226,2.025704811981369,-2.4261103776146045
2.1152664532905687,22.704969608249677,-0.0839427816352834,1.989775380549046,-2.3342485589865243
2.0993595992225385,22.330239333871557,-0.08349778750187806,1.9547538234311725,-2.247136277564613
2.083548431679535,21.962080610195617,-0.08293555505605289,1.920601162631354,-2.1644203022535446
2.0678538196123597,21.60033184000657,-0.08227088775632044,1.8872806288322839,-2.085780383980524
2.0522939771346804,21.244838217562233,-0.0815169277981956,1.8547575021607337,-2.010925661141803
2.0368847605650857,20.895451352984743,-0.08068535188175235,1.8229989670760105,-1.9395915075992642
2.021639930631454,20.552028923025265,-0.07978654215647099,1.7919739798658552,-1.8715367628853166
2.0065713842311275,20.214434345932386,-0.07882973574170825,1.761653147427613,-1.8065412932712352
1.9916893595422875,19.88253647838991,-0.0778231557197637,1.7320086161774124,-1.7444038398968613
1.9770026177716298,19.556209332696312,-0.07677412607663321,1.7030139700709488,-1.6849401165014217
1.9625186043869345,19.235331812539744,-0.07568917270963184,1.6746441368403133,-1.62798112464207
1.9482435923091115,18.919787465882653,-0.07457411232008468,1.6468753016553843,-1.5733716588066249
1.9341828092170588,18.609464253612106,-0.07343413075415446,1.6196848275082658,-1.5209689776575719
1.9203405508422922,18.304254332737578,-0.07227385213812677,1.5930511816973214,-1.4706416208987962
1.9067202818920261,18.00405385303008,-0.07109739996993646,1.5669538678552986,-1.4222683540279863
1.8933247260336108,17.708762766096413,-0.06990845117127677,1.5413733630253919,-1.375737225603274
1.8801559461951858,17.418284645971596,-0.06871028397003905,1.5162910593410799,-1.3309447236763892
1.8672154162831154,17.132526520392624,-0.06750582036754399,1.491689209911247,-1.2877950197795571
1.8545143417968264,16.851402246076162,-0.06618970054076151,1.4675136776304916,-1.2429486993568295
1.842062029258439,16.574828620163316,-0.06488727354752542,1.4437876477678826,-1.2000758848714308
1.8298557610472665,16.302721718444467,-0.0635997602542918,1.4204955282200016,-1.1590669214645246
1.8178926059624376,16.035000513556632,-0.06232818800706405,1.3976224179677168,-1.1198194011922458
1.8061694538952229,15.771586747361361,-0.06107341270045913,1.3751540682982943,-1.0822376075919837
1.794683046540551,15.51240481044308,-0.059836138401351685,1.3530768466309964,-1.0462320085248238
1.7834300045857874,15.257381628252702,-0.05861693480668705,1.331377702741395,-1.0117187926103914
1.7724068517649143,15.006446553458446,-0.05741625278144986,1.3100441371981357,-0.9786194450713286
1.7616100361222995,14.759531264099586,-0.056234438193441524,1.2890641718424865,-0.946860359247104
1.7510359487915137,14.516569667169733,-0.055071744235882576,1.2684263221559449,-0.9163724804282404
1.740680940560495,14.27749780728433,-0.05392834240642121,1.248119571374611,-0.8870909790087076
1.7305413364641948,14.042253780112734,-0.05280433229147537,1.2281333462211546,-0.8589549502617215
1.7206134486191829,13.81077765027879,-0.05169975028759673,1.2084574941361481,-0.8319071383173009
1.7108935874911024,13.583011373455317,-0.05061457737640873,1.1890822619004304,-0.8058936821628258
1.7013780717649887,13.358898722397608,-0.049548746056365355,1.169998275549127,-0.7808638817041365
1.6920632369699615,13.138385216679264,-0.04850214652286964,1.1511965214860673,-0.756769982117568
1.6829454429933808,12.921418055910188,-0.0474746321779786,1.1326683287147217,-0.7335669748954756
1.674021080604999,12.707946056231986,-0.046466024541828244,1.114405352108467,-0.7112124141416843
1.6652865770986862,12.497919589900018,-0.04547611762988764,1.0963995566490974,-0.6896662468109898
1.656738401147806,12.29129052777439,-0.04450468185306169,1.0786432025680408,-0.6688906557101891
1.6483730669600827,12.088012184554096,-0.043551467491393984,1.061128831329809,-0.6488499141887561
1.6401871378086756,11.888039266599591,-0.04261620778657354,1.0438492524018306,-0.6295102515466011
1.6321772290080654,11.691327822199309,-0.04169862169353545,1.0267975307590382,-0.610839728275641
1.6243400103961059,11.497835194145033,-0.04079841632708928,1.0099669750754494,-0.5928081203322322
1.6166722083771463,11.307519974489807,-0.039915289135643905,0.9933511265585142,-0.5753868117098759
1.6091781857321963,11.12054916271084,-0.03896915975856594,0.974762681641113,-0.6020792803521752
1.601859247420182,10.93709966019539,-0.03807229615737442,0.9562847132583561,-0.6303311135365524
1.5947061679416996,10.75715075161003,-0.03722327730033644,0.9379143244822737,-0.660029574889249
1.5877099944714732,10.58068226094678,-0.03642065396520362,0.9196487351308811,-0.6910641501706382
1.5808620518218466,10.40767452969737,-0.03566295287296997,0.9014852780207838,-0.7233262973662153
1.5741539466605083,10.238108395700621,-0.03494868040427571,0.8834213956292123,-0.7567092010046039
1.5675775710591,10.071965172585774,-0.03427632592633708,0.8654546371586537,-0.7911075296458476
1.5611251054443405,9.909226629735684,-0.03364436475534383,0.8475826560001813,-0.8264171954820447
1.5547890210188204,9.74987497269418,-0.03305126077644761,0.829803207594594,-0.8625351149830672
1.5485620817146875,9.5938928239418,-0.032495468740741246,0.8121141476936223,-0.8993589695024607
1.542437345739999,9.441263203963363,-0.031975436255977936,0.7945134310267709,-0.9367869647323043
1.5364081667745895,9.291969512529445,-0.03148960548517518,0.7769991103828959,-0.974717587860394
1.5304681948698544,9.145995510111725,-0.03103641456466729,0.7595693361194168,-1.0130493612381088
1.5246113771049052,9.003325299349342,-0.030614298750585505,0.7422223561161867,-1.0516805913121041
1.5188319580500873,8.863943306479726,-0.030221691300130436,0.7249565161955709,-1.0905091115068875
1.5131244800878987,8.727834262642794,-0.02985702409132822,0.707770261035272,-1.129432017667586
1.5074837836409136,8.594983184961876,-0.02951872798219965,0.6906621356059883,-1.1683453945819664
1.5019050073564029,8.465375357297948,-0.02920523290738754,0.6736307871721932,-1.2071440319971076
1.4963835882980125,8.338996310565967,-0.02891496770724599,0.6566749679012831,-1.2457211284281071
1.4909152621961144,8.215831802492595,-0.02864635968115712,0.6397935381342051,-1.2839679809228575
1.4854960638103347,8.095867796683788,-0.028397833853363023,0.6229854703795593,-1.3217736587973623
1.480122327460361,7.97909044085792,-0.028167811935835264,0.6062498541032724,-1.35902465918949
1.4747906877844397,7.865486044085355,-0.02795471096859804,0.5895859013974215,-1.3956045420949619
1.4694980807891487,7.755041052858235,-0.027756941613413962,0.5729929536248718,-1.4313935423476387
1.4642417452590566,7.647742025794496,-0.02757290607176561,0.5564704891513138,-1.4662681557873565
1.4590192246009472,7.543575606757258,-0.027400995592544566,0.5400181322933063,-1.5001006966242847
1.4538283692044285,7.442528496144515,-0.027239587528704014,0.5236356636303241,-1.5327588227621252
1.448667339409154,7.3445874200738,-0.027087041895238792,0.5073230318508839,-1.564105025588828
1.443534609178661,7.249739097151821,-0.026941697373108177,0.49108036732786525,-1.5939960804915043
1.4384289705921938,7.157970202479262,-0.02680186669496852,0.4749079976464438,-1.6222824541151954
1.4333495392789988,7.069267328495567,-0.026665831338662342,0.4588064653398344,-1.6488076641832539
1.428295760934731,6.983616942216557,-0.026531835443103,0.4427765481234195,-1.6734075875600796
1.423267419077055,6.901005338358942,-0.026398078848227074,0.42681928195672353,-1.6959097122084785
1.4182646442176314,6.82141858777911,-0.026262709145704135,0.41093598730466246,-1.716132328837361
1.4132879246508758,6.744842480578878,-0.026123812609615743,0.3951282990135666,-1.7338836584424904
1.408338119086673,6.67126246314772,-0.02597940385567785,0.37939820026177973,-1.7489609127454975
1.4034164713853645,6.6006635683196855,-0.02582741405283443,0.36374806108594027,-1.7611492859241862
1.3985246276896683,6.533030337724906,-0.025665677480808113,0.3481806820169846,-1.770220878272902
1.3936646562910004,6.468346735312586,-0.02549191618938036,0.33269934337586027,-1.775933555927293
1.3888390706186797,6.406596050919269,-0.025303722466626363,0.3173078607643235,-1.7780297560964864
1.3840508558022309,6.347760792660761,-0.025098538759151807,0.3020106472199547,-1.776235255178288
1.3793034993331217,6.291822566851209,-0.024873634599891895,0.2868127823542848,-1.7702579288571498
1.3746010264484052,6.238761944119162,-0.024626079976071323,0.2717200885093741,-1.7597865504829968
1.3699480409834346,6.18855831043048,-0.024352714392040762,0.25673921347674794,-1.7444896991256078
1.365349772607519,6.141189701891609,-0.024050110617597143,0.24187771851135825,-1.7240148851804022
1.3608121315862662,6.09663262257083,-0.023714531711380063,0.22714416907577525,-1.697988054261579
1.3563417725412688,6.054861845255083,-0.023341879288593024,0.21254822372157464,-1.6660137064582758
1.351946169156175,6.015850196228261,-0.022927630028184355,0.19810071340288235,-1.6276759778085104
1.3476337024961167,5.979568327066559,-0.022466755867166174,0.18381369882554738,-1.5825411877083386
1.343413766707918,5.9459844794606695,-0.021953620850715082,0.1697004864996101,-1.5301625778430459
1.3392968975837665,5.915064253697661,-0.02138184361403786,0.1557755741636423,-1.4700882768301469
1.3352949321777792,5.886770398328554,-0.02074410802793407,0.14205448235326518,-1.4018739420380495
1.3314212119704176,5.861062648488822,-0.020031894154818347,0.12855341069653717,-1.3251020667921944
1.3276908489489616,5.837897654029362,-0.019235085018403916,0.11528863624516342,-1.239410568185069
1.324121084935625,5.8172290561200235,-0.018341378279875982,0.10227555227417291,-1.1445338533911436
1.3207317918977954,5.799007790401394,-0.01733539053938455,0.089527244764025,-1.0403597277401921
1.3175461884134574,5.78318270939339,-0.01619727771680645,0.07705255532022703,-0.9270044092881463
1.3145918906797553,5.7697016100439775,-0.014900593164268224,0.06485375362097784,-0.8049039201364444
1.3119024863292867,5.75851268932486,-0.013408926314348323,0.052924359211830835,-0.6749107196827768
1.3095199441466454,5.749566269469554,-0.011670465081875114,0.04124848137034689,-0.538367322915688
1.3074984502352658,5.74281623301593,-0.009608418195805199,0.02980453393097012,-0.3971056656684154
1.3059110959308498,5.738219768625935,-0.007100574482258589,0.018579301753181607,-0.2533043916147396
1.3048643788024241,5.735731667470116,-0.003917500553800092,0.007611236729136935,-0.10914849403987997
