x,y,v_x,v_y,omega
2.375,32.48,0.0,2.1538461538461537,-7.877551020408164
2.373970728869229,32.07459914112813,-0.01083443295548658,2.1135313079629774,-7.519425323129008
2.3709955567404912,31.676743708473946,-0.020483168399645042,2.0744206147126456,-7.18466811668133
2.3662882306340385,31.28621135342274,-0.029067632720909533,2.0364462805632093,-6.871205852942851
2.3600407511547723,30.90279205613332,-0.03669530916610206,1.9995463224833305,-6.577191906254514
2.352425844989665,30.526287087361403,-0.04346159783502704,1.9636638751157673,-6.3009770869201
2.343599111561059,30.15650809207741,-0.04945138562398704,1.9287466015578534,-6.041084626696546
2.333700893958696,29.79327627691221,-0.05474037861141322,1.89474618965476,-5.796188855866339
2.322857915328895,29.436421686565826,-0.059396238544386686,1.8616179192545748,-5.565096945812003
2.3111847147762945,29.085782556814316,-0.06347955674614128,1.8293202886560627,-5.346733211314508
2.2987849111176004,28.741204733777593,-0.06704469229274744,1.7978146906778203,-5.140125561308455
2.2857523182066233,28.40254115076339,-0.07014049624385373,1.7670651305243283,-4.944393761623927
2.272171931789987,28.06965135535663,-0.07281093972073512,1.7370379790205281,-4.758739232851541
2.258120804773275,27.742401080538386,-0.0750956604551813,1.7077017559083363,-4.582436154280657
2.2436688252397023,27.420661854540672,-0.07703043989821572,1.6790269388044516,-4.414823683451878
2.228879409460303,27.104310644909624,-0.0786476209375651,1.650985794153967,-4.255299132195412
2.2138101203822984,26.7932295328892,-0.0799764746203804,1.6235522271136236,-4.103311965603634
2.1985132206148927,26.487305414773424,-0.08104352293125688,1.5967016477893086,-3.958358511375423
2.1830361676970633,26.18642972732612,-0.08187282357221094,1.5704108516559694,-3.8199772842798936
2.1674220583883965,25.890498194748275,-0.08248622178217632,1.5446579123213589,-3.6877448448300556
2.151710027838421,25.599410594995973,-0.08290357348072662,1.5194220850712796,-3.561272123194191
2.1359356087352994,25.313070543527132,-0.08314294339423486,1.494683719863891,-3.4402011493497984
2.1201404326815587,25.03139686950898,-0.08312206769777455,1.470302322432477,-3.31974070249125
2.1043604582571698,24.75431137402918,-0.08298292624316324,1.4463871036706868,-3.2046419112073012
2.088617055387944,24.481727095200448,-0.08273710395921086,1.4229210945264694,-3.0946027345945377
2.072929491155474,24.213560217535004,-0.08239515111942057,1.3998881440571773,-2.989341455847251
2.0573151172710906,23.94972992143491,-0.08196667924251251,1.3772728675227817,-2.8885950856614335
2.0417895402394053,23.690158242154116,-0.08146044740680372,1.3550605985908137,-2.7921179092700523
2.026366775933173,23.434769937488475,-0.08088444002721883,1.333237345258058,-2.6996801624928946
2.0110593901139673,23.183492363520795,-0.08024593701705317,1.3117897491385557,-2.6110668238515573
1.99587862626839,22.936255357811035,-0.07955157714691957,1.2907050478062807,-2.5260765112558614
1.9808345219842167,22.692991129477537,-0.07880741531806247,1.2699710399147452,-2.444520473041729
1.9659360149624914,22.453634155665313,-0.07801897438431021,1.249576052845488,-2.3662216642575165
1.9511910396479457,22.218121083941966,-0.07719129208459154,1.2295089126634449,-2.2910139000772167
1.936606615359365,21.986390640201826,-0.0763289635846766,1.2097589161801279,-2.2187410790830087
1.9221889267120418,21.75838354169487,-0.07543618007135977,1.1903158049457496,-2.149256469921766
1.9079433970448691,21.53404241482914,-0.07451676379361534,1.17116974100928,-2.0824220555136277
1.8938747554937456,21.31331171742464,-0.07357419990242263,1.1523112843012406,-2.0181079295868924
1.8799870982897111,21.096137665122757,-0.07261166540320187,1.1337313715080577,-1.9561917408421454
1.8662839448037678,20.88246816167916,-0.07163205550146608,1.1154212963192738,-1.8965581805180054
1.8527682888098114,20.672252732889525,-0.07063800759281155,1.097372690940017,-1.839098509548537
1.8394426453918802,20.46544246391698,-0.06963192312225308,1.0795775087710378,-1.783710121874433
1.8263090938813658,20.26198993980782,-0.06861598751474134,1.0620280081674873,-1.7302961408020439
1.8133693171734442,20.06184918899833,-0.06759218835811578,1.0447167371955401,-1.678765045600924
1.8006246377392872,19.86497562963001,-0.06656233200143383,1.0276365193130854,-1.6290303257959324
1.788076050621197,19.671326018504093,-0.06552805871530387,1.0107804399071076,-1.5810101608476608
1.7757242536713447,19.480858402518436,-0.06449085654629913,0.9941418336261338,-1.5346271231282247
1.7635782344297297,19.29376059413628,-0.06336197757596312,0.9753087809228473,-1.5363222927584443
1.751643608013756,19.110229213673925,-0.06226566890796968,0.9566004871019866,-1.5401837697020357
1.7399142194842159,18.93024088254748,-0.061201578771401866,0.9380135247553167,-1.546072317186232
1.7283839902159974,18.753772858965277,-0.06016925563089657,0.919544618215231,-1.5538519783120088
1.717046936054842,18.58080300960914,-0.05916815659179414,0.9011906381651691,-1.5633897671245542
1.70589718394103,18.411309782288377,-0.05819765513254146,0.8829485967902426,-1.5745553676592488
1.6949289871235373,18.245272179465225,-0.05725704820948662,0.8648156434534355,-1.5872208396992167
1.6841367390799837,18.08266973255295,-0.05634556277528832,0.8467890608863218,-1.6012603300057453
1.6735149862502265,17.923482476889497,-0.05546236174847127,0.8288662618868391,-1.6165497877995436
1.6630584396846464,17.767690927290822,-0.05460654946816194,0.8110447865203054,-1.6329666832790786
1.6527619857020237,17.61527605408815,-0.053777176664708465,0.7933222998236041,-1.650389727962148
1.6426206956463751,17.466219259553355,-0.05297324497369873,0.77569659001635,-1.6686985956284532
1.6326298348271813,17.320502354615243,-0.05219371101781455,0.7581655672269132,-1.6877736426242071
1.6227848707230814,17.178107535767865,-0.05143749007797365,0.7407272627454865,-1.707495626264701
1.6130814805253064,17.03901736206905,-0.05070345937228787,0.7233798288209817,-1.7277454200372104
1.6035155580938834,16.903214732123825,-0.049990460958481815,0.7061215390234898,-1.7484037242645956
1.5940832203969362,16.77068286094265,-0.04929730427254378,0.6889507891994112,-1.7693507708394483
1.5847808135012624,16.641405256558745,-0.04862276831349405,0.6718660990522197,-1.7904660205797474
1.575604918180764,16.5153656962819,-0.04796560348122617,0.6548661143882495,-1.8116278516899311
1.566552355208267,16.39254820245799,-0.04732453307137442,0.6379496100739679,-1.8327132377365323
1.5576201903958213,16.272937017593858,-0.04669825442805309,0.6211154937590118,-1.8535974134658268
1.54880573944871,16.1565165786961,-0.04608543975206526,0.6043628104279168,-1.874153526703564
1.5401065726991825,16.043271490659407,-0.045484736558750766,0.5876907478530484,-1.8942522744856847
1.531520519787382,15.933186498525341,-0.0448947677759908,0.5710986430318611,-1.913761521476826
1.5230456743591119,15.826246458415497,-0.04431413146895961,0.5545859897033502,-1.9325458986444788
1.5146803988530353,15.722436306923786,-0.043741400173951304,0.5381524470515054,-1.950466380076797
1.5064233294537104,15.621741028730703,-0.043175119818942294,0.521797849717777,-1.967379835769592
1.498273381291589,15.524145622177812,-0.04261380820338859,0.5055222192600339,-1.9831385581746384
1.4902297539768874,15.429635062512954,-0.042055953003995464,0.4893257772121692,-1.997589760313333
1.4822919375611718,15.33819426248576,-0.04150000926669462,0.47320895991619866,-2.0105750433395015
1.47445971902876,15.249808029938599,-0.040944396337640784,0.4571724353170742,-2.021929831613837
1.4667331894298261,15.164461022000236,-0.040387494177452896,0.4412171219288636,-2.031482773672969
1.4591127517786477,15.08213769544814,-0.039827638992844555,0.4253442101984507,-2.039055107997512
1.451599129854091,15.002822252761035,-0.03926311810775486,0.409555186507923,-2.044459993286832
1.4441933780556158,14.926498583336421,-0.038692163981456335,0.3938518600669617,-2.047501804145375
1.4368968924873968,14.853150199299975,-0.03811294726295203,0.37823639294827344,-2.047975394829931
1.429711423466363,14.782760165286714,-0.03752356874793262,0.3627113335071249,-2.0456653362107122
1.4226390896782155,14.715311021531235,-0.03692205007467202,0.3472796533926372,-2.0403451346530344
1.4156823942403416,14.650784699571155,-0.03630632295557896,0.3319447882924094,-2.0317764465323243
1.408844242974264,14.58916242985186,-0.03567421668734402,0.31671068243700584,-2.01970830910662
1.4021279652461864,14.530424640533514,-0.03502344360820941,0.30158183670347183,-2.0038764182501425
1.395537337807135,14.47455084685961,-0.03435158206601638,0.2865633598639191,-1.9840024971476138
1.389076612161368,14.42151953057504,-0.03365605631047609,0.271661022078931,-1.9597938188998638
1.3827505461239018,14.37130800911595,-0.03293411250495769,0.2568813090693832,-1.9309429720583442
1.3765644404113382,14.32389229468431,-0.0321827897325548,0.24223147442158335,-1.8971279940411014
1.3705241813691493,14.279246943938293,-0.03139888439574924,0.22771958606281117,-1.8580130467188818
1.3646362913101933,14.237344899975025,-0.03057890569852577,0.21335456091896177,-1.8132498757965123
1.3589079884797566,14.198157329690503,-0.02971901883238783,0.19914617891812914,-1.762480386707031
1.3533472594572014,14.161653461653295,-0.028814970878720918,0.18510506357879997,-1.705340791293723
1.3479629479825899,14.12780043255319,-0.027861992011925837,0.17124261115914752,-1.641467938318851
1.342764865953185,14.096563154353085,-0.02685466092917811,0.1575708435787944,-1.5705086410688827
1.3377639349602093,14.067904219752695,-0.02578671794425007,0.14410215221479378,-1.4921330530385757
1.332972370659264,14.041783870629303,-0.024650801013068782,0.13084889118932755,-1.4060533935947266
1.3284039281095232,14.018160062565475,-0.02343806793157128,0.11782277264044769,-1.312049521814663
1.3240742348618544,13.996988667368413,-0.022137650464942055,0.10503401890757168,-1.2100028458746495
1.3200012512764392,13.97822386182052,-0.020735860960480357,0.0924902500176012,-1.0999395367490656
1.3162059161513633,13.961818748655741,-0.019215035092949372,0.08019515171690256,-0.9820824659447748
1.3127130634003703,13.947726233301466,-0.017551835970135484,0.0681471151702036,-0.8569079457862275
1.3095527392699244,13.935900117638841,-0.01571473382403072,0.05633831285745002,-0.7251974451110108
1.3067621295331062,13.926296240069448,-0.01366010551089739,0.044755135241426214,-0.5880660099287083
1.3043884882444552,13.918873243029132,-0.011325592264377085,0.033381675709259845,-0.4469405060387822
1.3024939854747042,13.913592070330186,-0.008616542154054201,0.022209615858594656,-0.3034578239067005
1.3011653472428526,13.910412029130534,-0.005369123444384214,0.011264502032477737,-0.1592630251613305
1.3005425093542806,13.909274485938859,-0.0011870648563723843,0.0007096368272516956,-0.0157554663066673
