x,y,v_x,v_y,omega
2.375,32.48,0.0,2.051282051282051,-2.36734693877551
2.374696775651829,32.09373694802546,-0.003191835243904091,2.0146448116078357,-2.2643995763715936
2.373819569121023,31.71434544672361,-0.006041917711952827,1.9789499389379424,-2.167757085001723
2.37243014880038,31.341650385041056,-0.008583559347444562,1.9441559735099694,-2.076900414900002
2.3705842869064258,30.97548429586716,-0.010846565852071683,1.9102239125310185,-1.9913620290367136
2.3683323869540507,30.615686907326317,-0.012857644172929901,1.877117019477876,-1.9107200336097252
2.3657200387671877,30.262104728514878,-0.014640757794048472,1.8448006522214786,-1.8345930592483617
2.362788510245394,29.914590666325182,-0.016217437172202673,1.813242107670067,-1.762635786613952
2.3595751838189325,29.573003670404926,-0.017607051527392566,1.782410480964209,-1.6945350266069277
2.35611394443425,29.237208403647205,-0.018827047258735304,1.75227653753812,-1.6300062791137226
2.3524355249848425,28.907074935904433,-0.01989315747187335,1.7228125965963212,-1.5687907056637975
2.3485678143125948,28.582478458876405,-0.020819586446522462,1.6939924247513511,-1.5106524609311351
2.344536132229768,28.263299020345308,-0.021619172320073408,1.665791138733882,-1.455376336038057
2.3403634754336364,27.94942127612405,-0.02230353079710241,1.6381851162267127,-1.4027656733709692
2.336070737689363,27.64073425825316,-0.022883182300514372,1.6111519139931663,-1.3526405183158652
2.3316769072294607,27.33713115812947,-0.023367664645824415,1.5846701925719957,-1.3048359781438905
2.327199243949694,27.03850912337983,-0.023765633035930392,1.558719646897923,-1.2592007623695338
2.322653438662784,26.74476906740776,-0.024084948931542203,1.5332809422817693,-1.2155958823854738
2.3180537563954626,26.455815490642358,-0.024332759145525778,1.5083356552487313,-1.1738934911472543
2.313413165475074,26.171556312608743,-0.024515566332251087,1.4838662187893177,-1.1339758462191343
2.308744598995021,25.891903853490163,-0.02462723872093769,1.4598438771957545,-1.0945528844208072
2.304059183176319,25.61677350421014,-0.0246929277917123,1.43626506259396,-1.0568666702424192
2.299365241445005,25.346082447612197,-0.02471698516948946,1.4131144805422982,-1.0208206390586991
2.2946703072532264,25.07975070856522,-0.024703374743968654,1.3903775094258701,-0.9863246080799086
2.289981194328666,24.8177010296886,-0.024655708672456155,1.3680401629596106,-0.9532942872928548
2.2853040604233836,24.55985875396384,-0.02457727980420253,1.346089055195756,-0.9216508329087951
2.2806444652056213,24.30615171377553,-0.024471090909084503,1.324511367839072,-0.8913204391914475
2.276007422869566,24.05651012596017,-0.02433988104939211,1.303294819691049,-0.8622339649805293
2.271397449977362,23.810866492473796,-0.024186149394860964,1.282427638060246,-0.834326591616635
2.2668186089938667,23.569155506318992,-0.024012176747193734,1.261898531990314,-0.8075375093184324
2.2622745479268835,23.33131396239875,-0.023820045010525846,1.241696667170137,-0.7818096293687724
2.2577685364431663,23.09728067298938,-0.023611654818075437,1.221811642402162,-0.7570893197373134
2.253303498792748,22.866996387547204,-0.023388741502118032,1.2022334675154847,-0.7333261620078879
2.248882043840512,22.64040371658436,-0.023152889574046407,1.1829525426197482,-0.710472727692793
2.244506492473967,22.417447059368058,-0.022905545863273428,1.1639596386044921,-0.6884843722066749
2.2401789026294137,22.198072535214976,-0.022648031447814007,1.1452458787963748,-0.6673190449424838
2.235901092154819,21.982227918168412,-0.022381552495284736,1.1268027216937526,-0.6469371140435455
2.2316746597063135,21.769862574860575,-0.022107210120563086,1.108621944704513,-0.6273012046012437
2.2275010038561107,21.560927405375853,-0.021826009355258382,1.0906956288188983,-0.6083760491290026
2.223381340572503,21.355374786943393,-0.021538867314294764,1.0730161441543704,-0.5901283492718139
2.219316719217211,21.15315852029886,-0.021246620636144936,1.055576136314416,-0.5725266478079158
2.2153080371915594,20.954233778565765,-0.020950032265453757,1.0383685135076162,-0.5555412100866314
2.2113560533505563,20.758557058516693,-0.02064979763984016,1.021386434377351,-0.5391439141249371
2.2074614002928072,20.566086134083708,-0.02034655033646594,1.004623296496207,-0.5233081486560136
2.203624595624143,20.376780011995727,-0.02004086722842423,0.9880727254825415,-0.5080087184866895
2.1998471925879524,20.190807633352982,-0.019721269994635277,0.9695312602305527,-0.5364859345000272
2.1961277965430663,20.00834778290382,-0.019430267319953495,0.9510987444974839,-0.5664348933595786
2.1924610235827156,19.829380029527336,-0.019167342789003262,0.9327723436760211,-0.5977480472756196
2.188841594320512,19.653884470085735,-0.01893191260261077,0.9145493346566488,-0.6303197555733931
2.1852643461219032,19.481841708561504,-0.01872333159327238,0.896427102440515,-0.6640460552528646
2.1817242442417375,19.31323283580233,-0.018540898724261432,0.8784031371297112,-0.698824434124014
2.1782163919629776,19.14803940980237,-0.018383862104789393,0.8604750312909538,-0.7345536055688198
2.17473603982574,18.986243436449048,-0.018251423550347447,0.8426404776913693,-0.7711332839671331
2.1712785940306083,18.827827350664617,-0.01814274271419416,0.8248972674079071,-0.8084639598022259
2.1678396240955347,18.672773997870948,-0.018056940812896164,0.8072432883148958,-0.8464466734325338
2.164414869841554,18.521066615705077,-0.01799310396584556,0.7896765239574386,-0.8849827864785079
2.1610002477790533,18.37268881591105,-0.017950286165741746,0.7721950528217817,-0.9239737497269793
2.1575918569633674,18.227624566331315,-0.01792751189410919,0.7547970480175202,-0.9633208663993572
2.1541859843860927,18.085858172917547,-0.017923778392996456,0.7374807773906021,-1.0029250495635695
2.1507791099666593,17.947374261676828,-0.01793805760103534,0.7202446040906192,-1.0426865723920473
2.147367911207456,17.812157760464235,-0.017969297758999175,0.7030869876209076,-1.0825048098782986
2.1439492675751004,17.680193880526716,-0.018016424686851544,0.68600648540562,-1.1222779705216666
2.140520264670406,17.551468097696322,-0.01807834273098253,0.6690017549142733,-1.1619028163725615
2.1370781982501623,17.42596613312228,-0.01815393537684781,0.6520715563914419,-1.2012743696976151
2.133620578165103,17.303673933421592,-0.018242065518510854,0.6352147562474021,-1.240285604374569
2.1301451322804485,17.18457765011648,-0.018341575372589243,0.6184303311747812,-1.27882711995905
2.126649810448175,17.068663618213527,-0.018451286019766776,0.6017173730668269,-1.316786796178569
2.1231327886038294,16.955918333763805,-0.018569996552290094,0.5850750948249827,-1.3540494254021525
2.1195924730652997,16.84632843022549,-0.018696482800651153,0.5685028371572718,-1.3904963204064276
2.116027505116584,16.73988065342949,-0.01882949560688448,0.552000076484835,-1.4260048945107797
2.1124367659664087,16.63656183492468,-0.01896775860548951,0.5355664340921117,-1.4604482108863948
2.108819382179634,16.536358863451618,-0.019109965465818394,0.5192016866769562,-1.493694497559138
2.1051747316889173,16.439258654261636,-0.019254776541727914,0.5029057784807671,-1.5256066243290332
2.1015024505052553,16.345248115961404,-0.019400814865239934,0.48667883520586724,-1.5560415375276273
2.097802440259039,16.254314114520813,-0.019546661410721908,0.4705211799582493,-1.584849648241613
2.094074876718294,16.16644343403335,-0.019690849544489315,0.4544333514887332,-1.6118741693665195
2.090320219448225,16.081622733762668,-0.01983185856150273,0.438416125044776,-1.6369503966479686
2.0865392227962927,15.99983850094549,-0.019968106195680985,0.42247053618868324,-1.659904928764306
2.0827329484102783,15.921076998748944,-0.020097939972889525,0.40659790798548107,-1.6805548215686754
2.078902779523593,15.845324208698958,-0.020219627255375235,0.39079988201437904,-1.6987066719361954
2.0750504372730854,15.772565766805158,-0.0203313438026024,0.375078453709816,-1.7141556273916394
2.0711779993505526,15.702786892506833,-0.020431160645107783,0.359436012588345,-1.7266843190263041
2.0672879213310664,15.63597230945468,-0.02051702903369602,0.343875387960626,-1.73606171744152
2.063383061070396,15.572106157026731,-0.020586763183891216,0.32839990075461434,-1.7420419150035336
2.0594667066221577,15.51117189135817,-0.020638020481768715,0.31301342207232813,-1.7443628431736344
2.055542608195424,15.45315217455195,-0.02066827874701273,0.29772043904577394,-1.7427449419784027
2.051615014759306,15.398028750643405,-0.02067481005422374,0.282526128412564,-1.7368898111006057
2.047688716008437,15.345782306839507,-0.020654650481241293,0.26743643794425226,-1.7264788904806958
2.0437690905412618,15.296392318576789,-0.020604564962706535,0.2524581753474969,-1.711172245453646
2.039862161286099,15.24983687709636,-0.02052100614427222,0.23759910339385318,-1.690607571271796
2.035974659460706,15.206092498604214,-0.020400065701968784,0.22286803862875681,-1.6643995901195225
2.0321140987066064,15.165133914800172,-0.0202374159201303,0.2082749487822072,-1.63214009865483
2.0282888615597496,15.126933845814488,-0.020028238257311724,0.19383104054079084,-1.5933990474138136
2.0245083012029768,15.091462758677718,-0.019767133919244367,0.1795488240567884,-1.5477272113119496
2.0207828626560485,15.058688617788881,-0.019448008680001117,0.16544213266780494,-1.494661264584521
2.0171242294647045,15.028576639031172,-0.019063919649935444,0.15152606478177563,-1.433732430461632
2.0135455049956246,15.00108906699937,-0.01860686423511948,0.13781679871087263,-1.3644803631841924
2.0100614423592567,14.976185006181822,-0.018067479305595012,0.12433120989489117,-1.2864745521756618
2.0066887449564557,14.953820352724602,-0.017434598618623558,0.1110861949179411,-1.1993462804660566
2.00344647258892,14.93394789363968,-0.01669458419754326,0.09809758492335445,-1.1028348533814802
2.000356609014944,14.916517662519869,-0.015830295528520662,0.08537853212727821,-0.9968519624072304
1.9974448805588614,14.901477656286136,-0.014819477693399094,0.07293732296463062,-0.8815665671199997
1.99474196989142,14.888775004392063,-0.013632213542828361,0.06077480223616163,-0.7575074457023832
1.992285360496403,14.87835759464657,-0.01222683272050599,0.04888214245325606,-0.6256683824809298
1.9901222200909814,14.870175916166346,-0.010543066283931792,0.03724078891750425,-0.4875792654160203
1.9883141472769776,14.864184338907734,-0.008489279126633768,0.02582844538366762,-0.3452789091137626
1.9869459885602245,14.860339842391618,-0.0059123915760322335,0.0146399389965138,-0.20110986186206023
1.9861478123715135,14.858591944121475,-0.0024894630419790803,0.0037589901628845585,-0.05728607708607725
