x,y,v_x,v_y,omega
2.375,32.48,0.0,2.1025641025641026,-6.040816326530612
2.37422632563996,32.08417064348658,-0.00814394063199808,2.0640607028403224,-5.772064893572869
2.3719886566337345,31.695554598107524,-0.015410469959852183,2.0266345116760194,-5.520319899279138
2.3684454139582076,31.313952421282515,-0.021886821361482782,1.9902305075345914,-5.284125508638314
2.363739352563077,30.93917472898912,-0.0276506670083124,1.9547978323959012,-5.062178161613829
2.3579992646570602,30.571041446610568,-0.032771310949759144,1.9202893505362262,-4.853307896407502
2.3513414725304767,30.209381137911485,-0.03731071143533269,1.886661267348858,-4.656462313450994
2.3438711406953967,29.854030401659234,-0.04132436051287786,1.8538727984642929,-4.470692754487145
2.335683432295328,29.50483332708913,-0.04486204369836852,1.8218858812210268,-4.295142348500156
2.326864530798761,29.161641000786275,-0.04796849837076111,1.7906649219668942,-4.129035637956584
2.31749254475985,28.824311058686863,-0.05068398624935505,1.760176573816407,-3.9716695483326534
2.307638310762529,28.492707277835102,-0.05304479266981248,1.730389540412641,-3.8224055038806997
2.297366107450681,28.166699203306877,-0.055083663244375365,1.7012744019897366,-3.6806625250529867
2.2867342917000397,27.846161806357024,-0.05683018676237401,1.6728034606403048,-3.5459111695109042
2.2757958664389903,27.530975170388224,-0.05831113177499091,1.6449506021891742,-3.4176682004062178
2.2645989883212345,27.22102420179436,-0.059550743148752486,1.6176911724830623,-3.295491883567457
2.253187422350165,26.916198363115452,-0.060571003915137624,1.591001866242271,-3.1789778300949503
2.241600949618001,26.616391426267022,-0.061391866949744855,1.5648606268990928,-3.06775531324346
2.2298757335242643,26.321501243884086,-0.06203146035274745,1.5392465560791944,-2.9614839988130033
2.2180446491551535,26.031429537056894,-0.06250626984842127,1.5141398315754742,-2.859851036944241
2.206137579919246,25.746081697938777,-0.06283130105586766,1.489521632825754,-2.762568470520117
2.1941871113301428,25.46537367146599,-0.06296310514521948,1.4652996984667113,-2.666145315004733
2.182221338107515,25.189224442244175,-0.06299240246138711,1.4415342933418713,-2.5739947593078227
2.1702588065339583,24.917548815409553,-0.06292898252341839,1.4182091470225906,-2.485877440980473
2.1583162852854203,24.65026461545539,-0.06278176746119382,1.3953087472317454,-2.4015699853721943
2.146408922639981,24.38729254655266,-0.06255889196448325,1.3728182938496047,-2.3208637620112977
2.1345503892490187,24.128556061281454,-0.062267775308802294,1.3507236563736245,-2.24356375139126
2.1227530078950694,23.873981237146715,-0.061915186311716795,1.3290113345183372,-2.1694875111215763
2.1110278715080506,23.62349666030834,-0.06150730197269407,1.3076684216750976,-2.0984642316334945
2.0993849505767503,23.37703331600602,-0.06104976046204361,1.286682570980899,-2.0303338727107234
2.0878331909732886,23.134524485204555,-0.06054770904808196,1.2660419637713765,-1.9649463730634102
2.076380603102661,22.89590564702576,-0.060005847484839316,1.2457352802159347,-1.9021609259979684
2.0650343431958134,22.6611143865697,-0.05942846732408032,1.2257516719530983,-1.8418453149707905
2.0538007874814443,22.430090307760764,-0.05881948756401788,1.2060807365620194,-1.7838753034633255
2.042685599897682,22.202774950883793,-0.05818248700190318,1.1867124937219107,-1.728134074190498
2.0316937939388042,21.979111714502316,-0.057520733617861405,1.1676373629252346,-1.6745117131634872
2.020829789173297,21.75904578147523,-0.05683721128221402,1.1488461426230099,-1.62290473457963
2.0100974629169754,21.54252404881033,-0.05613464404748426,1.1303299906917805,-1.5732156429137503
1.9995001974978779,21.329495061113036,-0.05541551825880792,1.1120804061217813,-1.5253525289426462
1.9890409235075395,21.11990894740716,-0.05468210269212096,1.0940892118347942,-1.4792286967530945
1.978722159395539,20.913717361120774,-0.05393646690788398,1.0763485385482214,-1.434762319068177
1.9685460477303447,20.71087342304583,-0.053180497988898755,1.0588508096091165,-1.3918761184809905
1.9585143884190994,20.511331667093764,-0.052415915813683094,1.0415887267284256,-1.3504970724123901
1.9486286691516432,20.315047988682167,-0.05164428700164657,1.0245552565515446,-1.310556139813382
1.9388900933094773,20.121979595599143,-0.05086703765273133,1.0077436180065946,-1.271988007815805
1.9292996055582223,19.93208496120274,-0.050085464992057745,0.9911472703766147,-1.234730856699377
1.919863257314675,19.745547406135607,-0.04924451651896641,0.9724059408563319,-1.244626629149319
1.9105838695794375,19.562559333991942,-0.0484332491151131,0.953784292234918,-1.2564607437566635
1.9014558348181758,19.38309831215085,-0.04765132731921882,0.9352790955660526,-1.2701043760824893
1.8924736180811892,19.207142508344283,-0.04689832254379843,0.9168872602925365,-1.285431492924566
1.8836317739547643,19.034670664806328,-0.04617372089225322,0.8986058295806615,-1.3023185714768672
1.8749249620874897,18.86566207326299,-0.0454769303422164,0.8804319761386709,-1.3206443244204227
1.866347961407984,18.700096550671475,-0.04480728733679112,0.862362998508871,-1.340289429803741
1.85789568314294,18.53795441561964,-0.04416406282156702,0.8443963178262177,-1.3611362645812246
1.8495631827375254,18.379216465297397,-0.04354646776174408,0.8265294750395302,-1.383068640680228
1.841345670773981,18.223863952952122,-0.04295365817030298,0.8087601285949051,-1.4059715424616481
1.8332385229786856,18.071878565740086,-0.042384739674912526,0.7910860525844609,-1.4297308644250346
1.8252372894029967,17.923242402884668,-0.041838771648129866,0.7735051353672856,-1.4542331479870263
1.817337702858796,17.7779379540508,-0.041314770922401906,0.7560153786734318,-1.479365316131208
1.8095356866858707,17.63594807784225,-0.0408117151083907,0.7386148972060619,-1.505014404687976
1.8018273619250151,17.497255980325335,-0.04032854553219442,0.721301918761451,-1.5310672889544152
1.7942090539680677,17.361845193478295,-0.039864169804092325,0.7040747848915696,-1.557410404306183
1.7866772987539736,17.22969955346035,-0.03941746402847815,0.6869319521394659,-1.5839294593857067
1.7792288485784131,17.100803178588144,-0.03898727466163283,0.6698719938837354,-1.6105091403733336
1.7718606775835732,16.975140446899857,-0.038572420020892034,0.6528936028350877,-1.6370328047602898
1.7645699869942608,16.85269597317815,-0.03817169144555438,0.6359955942354965,-1.6633821629444108
1.7573542101668143,16.733454585292996,-0.03778385410651479,0.6191769098187717,-1.6894369458618381
1.75021101751818,16.617401299713144,-0.0374076474580554,0.6024366226007227,-1.7150745567508954
1.7431383214041283,16.50452129602121,-0.03704178532143864,0.5857739425775399,-1.7401697050193647
1.7361342810179334,16.394799890251186,-0.03668495558587457,0.5691882234227315,-1.764594020055405
1.7291973073840134,16.28822250684885,-0.036335819508020374,0.5526789702860627,-1.7882156426885656
1.7223260685250483,16.184774649034477,-0.03599301058634923,0.5362458488125934,-1.810898791875571
1.71551949488611,16.08444186732324,-0.03565513298142183,0.5198886955162197,-1.8325033040628689
1.7087767851053894,15.987209725931478,-0.035320759447215584,0.503607529660207,-1.8528841425746154
1.7020974122283543,15.893063766766137,-0.034988428732102304,0.48740256681707955,-1.871890874305531
1.6954811304707404,15.801989470659834,-0.034656642400675536,0.4712742343018814,-1.8893671109837067
1.6889279826458488,15.713972215475032,-0.03432386101923612,0.4552231886960338,-1.9051499123383593
1.6824383083834005,15.628997230657088,-0.03398849963811504,0.43925033570336885,-1.9190691487028808
1.6760127532809603,15.547049547767827,-0.03364892249283305,0.4233568526046419,-1.9309468209619465
1.6696522791450126,15.46811394647833,-0.03330343683293539,0.4075442136005987,-1.9405963363933487
1.6633581754975824,15.392174895442604,-0.032950285771592154,0.3918142183543987,-1.9478217399728814
1.6571320725464451,15.319216487413371,-0.03258764002985322,0.3761690240585804,-1.9524169022605626
1.6509759558431836,15.249222367899101,-0.03221358842553057,0.3606111813547759,-1.9541646672872042
1.6448921828847702,15.182175656600641,-0.03182612692618844,0.34514367441846466,-1.9528359672168136
1.6388835019524244,15.118058860810773,-0.031423146045873825,0.3297699654748966,-1.9481889153985694
1.632953073528443,15.056853779918335,-0.031002416311822614,0.3144940439192037,-1.939967896337681
1.627104494690685,14.998541400141345,-0.03056157145405116,0.29932048004908657,-1.9279026809398219
1.6213418269601174,14.943101778637768,-0.030098088867715003,0.28425448314645063,-1.9117076092822225
1.6156696281764038,14.890513916233623,-0.029609266750322993,0.26930196321295835,-1.8910809027583935
1.6100929891106224,14.840755618203506,-0.02909219710000673,0.25446959499879823,-1.8657041949878823
1.6046175757092462,14.793803342892666,-0.028543733440794618,0.23976488195739792,-1.8352424094918363
1.5992496781246996,14.74963203856187,-0.02796045165969564,0.22519621626152111,-1.7993441660645508
1.5939962680640662,14.708214969778922,-0.02733860161012964,0.21077292882214899,-1.7576429727313772
1.5888650665392787,14.669523536132594,-0.026674046019212506,0.1965053200865811,-1.709759563612721
1.583864624923196,14.633527088222806,-0.025962181518499945,0.18240465791117513,-1.6553058841056343
1.5790044234519915,14.600192749072704,-0.02519783396786223,0.16848312261622264,-1.593891413808089
1.5742949931905001,14.569485253670269,-0.02437511615309974,0.15475367109361526,-1.5251327634468994
1.5697480703396947,14.541366825673077,-0.02348722964485461,0.14122978150840199,-1.4486677860181536
1.565376796140335,14.515797118718734,-0.022526182979980602,0.12792502853730336,-1.3641757839826063
1.5611959823017414,14.49273326024315,-0.021482383742060962,0.11485242910041135,-1.271405702455606
1.557222472019179,14.472130047227989,-0.020344040284911345,0.10202349737494734,-1.1702142960245967
1.553475641928951,14.453940352733568,-0.019096276454331443,0.08944697098737929,-1.0606157701988372
1.5499781133244013,14.438115802017009,-0.017719814119874992,0.07712724708167593,-0.9428426364770321
1.5467567759403091,14.424607752602377,-0.01618900044951577,0.06506274675657452,-0.8174134089149154
1.5438442841308082,14.413368537588621,-0.014468808071547856,0.053244779704030555,-0.6851951171001831
1.541281290839116,14.404352764297375,-0.012510068683104553,0.04165809704591507,-0.5474372430699305
1.539119933571644,14.397518134163555,-0.010241060448181762,0.030285378046945144,-0.4057418190365134
1.537429846795685,14.392824588288413,-0.0075493266671756015,0.019120368007165725,-0.26193045196801057
1.5363110971814988,14.390228618448148,-0.004226985061099409,0.008205630311406392,-0.11778425831727293
