x,y,v_x,v_y,omega
2.375,32.48,0.0,3.846153846153846,-5.428571428571429
2.3732287886992096,31.684075961833813,-0.016868679055144633,3.734075088762202,-4.982318660087958
2.3682460745940928,30.911059089721697,-0.030585740993590717,3.627990359924601,-4.5917835852766
2.360653904001644,30.159743430706758,-0.041720645601158346,3.5273968687891,-4.2480863289008255
2.350946412974616,29.42902248781823,-0.05073164989434578,3.431850206339746,-3.9440058912554914
2.339530682707361,28.717877905215513,-0.05798959074617684,3.34095534225756,-3.673629610501521
2.3267431850045917,28.025369857243568,-0.06379610166115132,3.2543594003323975,-3.432084860120889
2.312862837370377,27.350628813061153,-0.06839768533137065,3.1717457823572603,-3.2153318046534665
2.2981214302489446,26.69284842609113,-0.07199666820608168,3.092829331642971,-3.020001977393564
2.2827120024097525,26.051279353688138,-0.07475978740526823,3.0173523102902644,-2.8432715795208052
2.2667956034313064,25.425223853773232,-0.07682496477041245,2.945081022232652,-2.6827613219281576
2.2505067804818513,24.814031036150787,-0.07830668236725336,2.8758029551239783,-2.5364567222586603
2.2339580503133982,24.21709266976827,-0.07930027161801277,2.8093243437571167,-2.40264428410628
2.217243559708896,23.633839465337687,-0.07988535318677237,2.7454680793913164,-2.279860093759627
2.200442093672697,23.063737766925193,-0.08012860906274209,2.6840719054895543,-2.1668481889967204
2.1836195569255716,22.506286597334245,-0.08008602662416618,2.624986852519508,-2.0625266651631846
2.1668310282100967,21.961015011075936,-0.07980472304702461,2.568075873750099,-1.965959942842866
2.150122466661543,21.42747971596188,-0.07932443455824728,2.51321265114567,-1.8763359691389845
2.133532133670406,20.90526293025493,-0.07867873678591329,2.4602805460633417,-1.7929473898095
2.11709178122375,20.393970447160466,-0.07789604842033705,2.4091716738839515,-1.7151759331525185
2.100827647888247,19.89322988245299,-0.07700045953683553,2.359786085234887,-1.6424794038872643
2.0847612958015462,19.40268908437674,-0.07601241747935897,2.312031039300848,-1.5743808075673482
2.068910315823738,18.92201468776306,-0.07494929659500404,2.2658203570198694,-1.5104592216374595
2.0532889230250864,18.450890796672546,-0.073825872915963,2.2210738438422033,-1.450342104335004
2.0379084606864195,17.98901778187507,-0.07265472078562644,2.1777167732766034,-1.3936987919326314
2.0227778277605712,17.536111181189447,-0.07144654517483576,2.135679423729342,-1.3402349818644657
2.007903842128383,17.09190069216603,-0.07021046084600463,2.094896662207967,-1.2896880367800019
1.9932915498569106,16.656129247851922,-0.06895422745373081,2.055307569354953,-1.24182297459383
1.9789444889332086,16.22855216746171,-0.06768444801009788,2.0168551010280167,-1.1964290337392418
1.9648649145275725,15.808936374714442,-0.06640673680548367,1.9794857822792988,-1.1533167223216496
1.9510539916745557,15.397059677411974,-0.06512586179467793,1.943149430125151,-1.1123152756617836
1.9375119603000739,14.99271010254322,-0.06384586558133895,1.9077989019582025,-1.0732704595673566
1.9242382767298953,14.595685281818682,-0.0625701684203617,1.8733898668469469,-1.0360426671626373
1.9112317351578483,14.205791883082618,-0.061301656075325124,1.8398805973060326,-1.0005052657010487
1.8984905720063514,13.82284508352727,-0.0600427548913099,1.8072317794115784,-0.9665431568528048
1.88601255565733,13.446668081053375,-0.058795496051752716,1.7754063393874309,-0.9340515197887429
1.8737950636520213,13.077091640492029,-0.057561570665473204,1.7443692850063373,-0.9029347112050277
1.8618351491404632,12.713953671730714,-0.0563423770636504,1.71408756033952,-0.8731053004371084
1.8501295980948531,12.357098837076972,-0.055139061465968184,1.6845299125532691,-0.8444832211444997
1.8386749785767618,12.00637818545136,-0.05395255299204598,1.6556667695954213,-0.8169950238309853
1.8274676831591994,11.661648811231046,-0.05278359384188217,1.627470127740901,-0.790573215795085
1.8165039654449018,11.322773535770235,-0.051632765341903634,1.5999134480763384,-0.7651556770620848
1.8057799714870773,10.989620609806586,-0.05050051044690215,1.5729715611012673,-0.7406851424959553
1.7952917668042536,10.662063435126473,-0.04938715319903472,1.5466205787093157,-0.7171087416795959
1.7850353595834818,10.339980304008684,-0.048292915570220266,1.5208378128886662,-0.6943775893280862
1.775006720583226,10.023254155097813,-0.04721793205126371,1.4956017005481819,-0.6724464199973402
1.7652154054902853,9.711773798623366,-0.046032687881504275,1.4708778849227553,-0.6475534074350866
1.755669734897496,9.405432148103873,-0.04487846062125434,1.4466616438343192,-0.6238379474077949
1.7463632579837292,9.104124572185825,-0.04375465284319121,1.422934317289968,-0.6012300658073712
1.737289653100584,8.807750265462303,-0.04266063175819194,1.3996781276959507,-0.5796647367234828
1.7284427343127824,8.516212068658074,-0.041595737649441696,1.376876127582422,-0.5590814771576038
1.7198164562969263,8.229416299405838,-0.04055929107299629,1.3545121510102924,-0.539423979346492
1.711404917839966,7.947272592872018,-0.03955059899329272,1.33257076835941,-0.5206397768044068
1.7032023641457918,7.669693751550632,-0.03856895999884016,1.3110372442252043,-0.5026799406363797
1.695203188129958,7.396595603598513,-0.03761366872338882,1.289897498175938,-0.48549880306290394
1.6874019308580213,7.127896869134801,-0.036684019580769354,1.2691380681451419,-0.4690537054368699
1.679793281261816,6.863519033972892,-0.03577930990690101,1.2487460762539904,-0.4533047683327535
1.6723720752496594,6.603386230294191,-0.03489884258982784,1.2287091968765091,-0.4382146815513679
1.6651332943106625,6.347425123810584,-0.03404192825776034,1.2090156267768748,-0.4237485121155698
1.6580720636995974,6.095564806996919,-0.03320788708571953,1.1896540571628123,-0.4098735285371683
1.6511836502769017,5.847736698006017,-0.0323960502732869,1.1706136475124278,-0.3965590398163703
1.6444634600681143,5.603874444907607,-0.0316057612389735,1.1518840010438707,-0.38377624779539243
1.637907035598101,5.363913834918648,-0.030836376570678125,1.1334551417081338,-0.37149811162995894
1.6315100530476996,5.1277927083168,-0.030087266766476047,1.1153174925951954,-0.3596992232685182
1.6252683192736974,4.895450876750772,-0.029357816795451307,1.0974618556526896,-0.34835569294109836
1.619177768727217,4.666830045681671,-0.02864742650436155,1.0798793926244497,-0.33744504375946105
1.6132344603005444,4.441873740708118,-0.02795551089252052,1.0625616071236883,-0.3269461146190854
1.6074345741280252,4.220527237545085,-0.02728150027432925,1.0455003277623383,-0.316838970672791
1.601774408362857,4.002737495442293,-0.026624840346321326,1.028687692264232,-0.3071048207166181
1.5962503759482907,3.7884530938425307,-0.025984992173357934,1.012116132495416,-0.29772594089189924
1.5908590013988877,3.57762417209376,-0.025361432106669905,0.9957783603500251,-0.28868560416413863
1.5856021272335328,3.3703374390611813,-0.0247040361348036,0.9783810018650063,-0.30572195493454324
1.5804795085152583,3.1666920501733564,-0.02408280880114451,0.9610988923047461,-0.3246930378214872
1.5754835924085449,2.9666641409971426,-0.023497344596126603,0.9439288141353737,-0.3454870612356034
1.5706069199013333,2.7702305095966686,-0.02294715547255553,0.9268676753929477,-0.3679953145694428
1.5658421423188928,2.577368590718706,-0.022431678645925174,0.9099125043971811,-0.39211192555261515
1.5611820362671618,2.388056431044731,-0.021950283751513405,0.8930604448787622,-0.41773362546913156
1.5566195171357349,2.202272665424722,-0.021502279404933534,0.8763087515022756,-0.444759521293016
1.5521476512812828,2.0199964940112203,-0.02108691920889538,0.8596547857691691,-0.47309087382525916
1.5477596670035962,1.841207660215261,-0.02070340724526328,0.843096012287597,-0.5026308809358582
1.5434489644185974,1.6658864294082392,-0.020350903088059365,0.8266299953983199,-0.5332844650290964
1.5392091243255197,1.4940135682958555,-0.02002852636982236,0.810254396148182,-0.5649580638583663
1.5350339161589681,1.3255703248917676,-0.01973536093066921,0.7939669696050449,-0.5975594238186553
1.5309173051107159,1.1605384090196402,-0.019470458576494914,0.7777655625104645,-0.6309973948401819
1.5268534585008382,0.9988999732728097,-0.019232842469960952,0.76164811126887,-0.6651817259953655
1.5228367514730918,0.8406375943607465,-0.01902151017524124,0.7456126402745934,-0.7000228609130833
1.5188617720853277,0.685734254770928,-0.01883543637489363,0.7296572605808219,-0.7354317320686493
1.5149233258621222,0.5341733246736098,-0.018673575274681,0.7137801689174544,-0.771319552984722
1.5110164398737669,0.38593854399513816,-0.018534862709655143,0.6979796470679711,-0.8075976073368965
1.50713636640321,0.2410140045830218,-0.018418217962314472,0.6822540616188315,-0.8441770339074636
1.5032785862605489,0.0993841323826885,-0.018322545301127424,0.6666018640986473,-0.8809686062710397
1.4994388118031896,-0.03896633045815889,-0.01824673524515008,0.6510215915284996,-0.9178825060257007
1.4956129897188766,-0.17405234364663613,-0.018189665557830352,0.6355118674093593,-0.9548280883020256
1.4917973036284176,-0.30588858705827704,-0.018150201970350856,0.620071403177703,-0.9917136381891046
1.4879881765651723,-0.4344894794093861,-0.018127198631984556,0.6046990001661965,-1.0284461166100478
1.4841822733892163,-0.5598691973986831,-0.018119498281884434,0.5893935521128444,-1.0649308940587479
1.480376503195605,-0.6820416954388193,-0.018125932133460143,0.5741540482694173,-1.1010714704734395
1.4765680217784003,-0.8010207261097904,-0.01814531945896535,0.5589795771683982,-1.1367691793698433
1.4727542342151108,-0.9168198614797873,-0.01817646685807901,0.5438693311173134,-1.1719228741862988
1.4689327976400566,-1.0294525154546363,-0.018218167190055562,0.5288226115003214,-1.2064285946044042
1.4651016242799408,-1.1389319673350187,-0.01826919814437877,0.5138388349795351,-1.2401792104007383
1.4612588848307118,-1.2452713867816882,-0.018328320419710203,0.49891754070300204,-1.273064040158221
1.457403012261747,-1.3484838604130047,-0.018394275475193202,0.48405839864283573,-1.3049684419204637
1.4535327061416163,-1.4485824202871314,-0.018465782811762824,0.46926121920597685,-1.335773372611274
1.4496469375893204,-1.5455800745533494,-0.018541536733913063,0.45452596428179876,-1.365354912768532
1.4457449549661625,-1.6394898405940737,-0.01862020253425772,0.43985275991559064,-1.3935837528641553
1.4418262904364911,-1.7303247810218565,-0.018700412034041408,0.4252419108251953,-1.420324637211344
1.4378907675406718,-1.8180980429445555,-0.018780758402333515,0.41069391701004226,-1.4454357612146211
1.433938509941128,-1.9028229009680686,-0.018859790164751554,0.39620949273772144,-1.4687681175243208
1.4299699515224404,-1.9845128044700076,-0.01893600429893827,0.3817895882331293,-1.4901647865553378
1.4259858480497296,-2.063181429750564,-0.019007838298307447,0.367435414438837,-1.5094601668792826
1.4219872906163395,-2.138842737749144,-0.019073661067310982,0.35314847126191823,-1.5264791412862855
1.417975721142819,-2.2115110381075453,-0.019131762490027383,0.33893057977046026,-1.5410361749636257
1.4139529502250916,-2.281201060462635,-0.01918034148832973,0.3247839188494754,-1.5529343434363085
1.4099211776715472,-2.3479280339627593,-0.019217492354950367,0.31071106686600486,-1.5619642899253774
1.4058830161178886,-2.41170777612016,-0.019241189108465322,0.29671504891874334,-1.567903114988616
1.401841518166798,-2.472556792232403,-0.01924926756858647,0.28279939024547807,-1.5705132062747111
1.397800207569512,-2.53049238672088,-0.01923940478652134,0.2689681763114719,-1.5695410237583862
1.393763115052113,-2.5855327878306014,-0.019209095379182146,0.25522611997155903,-1.5647158671117165
1.389734819496728,-2.637697287190676,-0.01915562419591203,0.2415786358386416,-1.5557486686244986
1.3857204953259843,-2.6870063957139223,-0.019076034573078188,0.22803192152558868,-1.5423308798150228
1.3817259671225157,-2.7334820171614,-0.018967091174240013,0.21459304464086185,-1.5241335562065457
1.377757772767067,-2.777147640328039,-0.018825236020510172,0.20127003313667105,-1.5008067979489326
1.3738232367361256,-2.8180285500875755,-0.018646535702741246,0.18807196457321326,-1.4719797816132334
1.3699305557239398,-2.8561520562706946,-0.0184266167942667,0.17500904669460637,-1.4372617313385792
1.3660888995442113,-2.8915477372451264,-0.018160584917433675,0.1620926768714373,-1.3962443405114646
1.362308531488766,-2.924247691691747,-0.017842920372522632,0.1493354607154287,-1.3485063882484296
1.358600954246921,-2.9542867868238574,-0.01746733907361958,0.1367511595903885,-1.2936216227593655
1.354979090570705,-2.981702883376954,-0.01702660069986503,0.12435452186770142,-1.2311714317084586
1.351457512848148,-3.0065370061500474,-0.016512234753059348,0.1121609331141209,-1.1607644016056942
1.3480527438254875,-3.028833412843987,-0.01591413689132659,0.10018579730433702,-1.0820655521438596
1.3447836638357271,-3.048639493367496,-0.015219958249247503,0.08844354101476447,-0.9948386615932336
1.3416720811070166,-3.0660054091987874,-0.01441416297656599,0.07694613356896833,-0.8990052340824801
1.3387435558670937,-3.0809833667041957,-0.013476553594128624,0.06570108076824346,-0.7947222811955468
1.3360286240672967,-3.0936264318765865,-0.0123799397372714,0.05470906373074545,-0.6824762291043001
1.333564658826356,-3.1039868834656232,-0.011086395890735148,0.04396190378386139,-0.5631789499906268
1.331398782212365,-3.1121143509914333,-0.00954100043298991,0.03344254884290647,-0.4382318084081716
1.3295926623175958,-3.118054537527037,-0.007660141421955609,0.02313065625809496,-0.3094983240122559
1.3282314464052951,-3.1218505630572366,-0.005303819647575087,0.013021967839032825,-0.17911215628046628
1.3274462132109517,-3.123553383870714,-0.0021745917271241227,0.0031953732416935172,-0.049076516625726735
