x,y,v_x,v_y,omega
2.375,32.48,0.0,2.923076923076923,-5.918367346938775
2.3732890475554447,31.81625562902267,-0.014877847343960384,2.848613259334616,-5.506542989144984
2.368428916367188,31.169248108614504,-0.02738416298870346,2.7775390920407474,-5.137782649050698
2.3609232076136313,30.53822699089934,-0.037882869650922996,2.7096010620041464,-4.806254155536465
2.3511988204839382,29.922496962238643,-0.046677018433361424,2.6445731002627757,-4.507061998261483
2.339618652844919,29.321412030886037,-0.054020091471153345,2.5822523897598955,-4.236075074722215
2.326491971100862,28.734370554721263,-0.060124967172824895,2.5224560986294513,-3.9897900975085854
2.3120829249037635,28.16081095204712,-0.06517108671498528,2.4650187072326326,-3.76522243467871
2.296617574364017,27.60020797395915,-0.069310222326288,2.4097897978801806,-3.559818255451505
2.2802897166621476,27.05206944311953,-0.07267114899431676,2.3566322094208507,-3.3713833645322473
2.263265737856041,26.51593338351436,-0.0753634493196549,2.305420482798028,-3.1980252108391136
2.245688668937202,25.991365480766397,-0.07748062823546722,2.2560395410972833,-3.038105370534508
2.227681589093203,25.4779568240895,-0.07910267475582365,2.2083835604409567,-2.8902004121383547
2.2093504910180854,24.975321889909665,-0.08029817807128783,2.1623549976445497,-2.7530695099304126
2.190786701044543,24.483096734189843,-0.08112608256821126,2.1178637477452433,-2.6256275207417845
2.172068929429917,24.00093736605086,-0.08163714886331998,2.0748264099850293,-2.5069225069889445
2.153265012255363,23.528518279723716,-0.08187517439366972,2.0331656450336095,-2.39611689586696
2.134433395300044,23.065531125452978,-0.08187801652215035,1.9928096094945622,-2.2924716258828752
2.115624401327563,22.611683502888035,-0.0816784528037691,1.9536914562875503,-2.195332758328729
2.0968813150095595,22.16669786289116,-0.08130490648321848,1.9157488915113488,-2.104120130999113
2.078241313856353,21.730310505668072,-0.08078206006640264,1.8789237799937566,-2.018317710541481
2.0597362687512413,21.302270664771594,-0.08013137563022384,1.8431617930190916,-1.9374653628870042
2.041393433778145,20.882339667906717,-0.07937153717930796,1.8084120927624512,-1.8611518117429817
2.0232360418226123,20.4702901666264,-0.07851882765141029,1.7746270488055347,-1.7890085958132558
2.00528381977995,20.065905427991517,-0.07758745098043796,1.74176198280213,-1.7207048683152102
1.987553435015288,19.668978682106918,-0.07658980784270893,1.709774937933535,-1.655942909081715
1.970058882903893,19.279312520163593,-0.07553673225637882,1.6786264702692921,-1.5944542413222549
1.9528118237680827,18.896718338234898,-0.07443769501153498,1.6482794595454313,-1.5359962629481838
1.9358218762649892,18.52101582260852,-0.07330097892840924,1.618698937205679,-1.4803493170137247
1.9190968732229152,18.152032472899137,-0.07213383013310405,1.589851929832415,-1.427314137897434
1.9026430850373333,17.789603159590136,-0.07094258887195558,1.5617073163328126,-1.376709619833812
1.8864654149914495,17.433569713005234,-0.06973280283138095,1.5342356974489746,-1.328370862689185
1.8705675702369002,17.083780541020083,-0.06850932546904914,1.507409276334937,-1.2821474567707416
1.8549522116380177,16.74009027309587,-0.06727640147775374,1.481201749093,-1.2379019742128212
1.8396482969305308,16.402363839176623,-0.0658011177177854,1.4555498502047919,-1.1889077666879821
1.8246814616193079,16.07047143527626,-0.06434527629284877,1.430471053276629,-1.1424080510645467
1.8100470416285939,15.744283849142377,-0.06291054971335996,1.405942739191938,-1.098243635967738
1.795740024487277,15.423676937788905,-0.06149829499374271,1.38194344649042,-1.0562674171197677
1.781755117105706,15.108531369795717,-0.060109595280789886,1.3584527969286002,-1.01634331510176
1.7680868045876799,14.79873238407043,-0.05874529618030629,1.335451426769532,-0.9783453188355874
1.75472940121713,14.494169563814005,-0.05740603747664978,1.3129209232863268,-0.9421566230583792
1.7416770946102176,14.194736624544081,-0.05609228084432774,1.2908437660173546,-0.9076688494944717
1.7289239838951629,13.900331215130926,-0.0548043340691911,1.2692032723579116,-0.8747813426709602
1.716464112671115,13.610854730891575,-0.05354237222687664,1.2479835471147138,-0.843400532401236
1.7042914974013113,13.326212137869444,-0.052306456206201564,1.2271694356864329,-0.8134393558991326
1.6924001518125205,13.046311807500388,-0.0510965489137185,1.206746480566244,-0.7848167333042331
1.680784107800539,12.771065360932745,-0.04991252945133711,1.1867008808915058,-0.757457091113177
1.6694374332787487,12.500387522329177,-0.04875420552075086,1.167019454791698,-0.7312899286366609
1.6583542473521824,12.2341959805326,-0.04762132427547918,1.1476896043089646,-0.7062494231493557
1.64752873315202,11.972411258528133,-0.04651358181288837,1.1286992826863935,-0.6822740698805243
1.636955148624034,11.714956590177852,-0.04543063147394767,1.110036963837795,-0.6593063534155583
1.6266278355283559,11.461757803746117,-0.04437209109716425,1.091691613829452,-0.6372924474505828
1.6165412268763963,11.212743211770505,-0.0433375493546591,1.0736526642193498,-0.6161819401702232
1.6066898530031462,10.967843506867293,-0.0423265712822996,1.0559099871129227,-0.595927582808217
1.597068346448968,10.726991663091553,-0.04133870310185721,1.0384538718065464,-0.5764850592066404
1.5876714458038368,10.490122842500185,-0.04037347642102171,1.02127500290102,-0.5578127744162962
1.5784939986484683,10.257174306592187,-0.0394304118865311,1.004364439777232,-0.5398716605819015
1.5695309637105246,10.028085332324256,-0.03850902235645623,0.9877135973352063,-0.5226249985342757
1.5607854578040377,9.802909304862961,-0.03753885509125709,0.9703388153716997,-0.5257471384906249
1.5522586351422873,9.581714441925342,-0.03660742892396416,0.9530947753902029,-0.5313803188476178
1.5439415929280125,9.364471129899162,-0.03571467728712077,0.9359775030983136,-0.5393871050660111
1.5358254584160633,9.151150649907827,-0.03486040542547937,0.9189831924785189,-0.5496346863519288
1.5279014170275071,8.941725140048849,-0.03404430230109714,0.902108197599544,-0.5619945422563603
1.520160737838712,8.73616755944446,-0.03326595151451125,0.8853490250473204,-0.5763421238697903
1.512594796663036,8.534451653965899,-0.032524841317457004,0.8687023269401817,-0.5925565481803294
1.505195096926101,8.33655192350065,-0.03182037378632551,0.852164894496759,-0.6105203042361378
1.4979532885204003,8.14244359063872,-0.03115187321976652,0.8357336521287045,-0.6301189698152151
1.4908611848110023,7.952102570660024,-0.030518593818478542,0.8194056520338557,-0.6512409373582564
1.4839107779513487,7.765505442710218,-0.029919726700246518,0.8031780692688044,-0.6737771479636653
1.4770942526564759,7.582629422056751,-0.02935440629864715,0.787048197283087,-0.6976208322782692
1.4704039985703385,7.403452333320651,-0.028821716189504017,0.7710134439004017,-0.7226672571430015
1.4638326213542587,7.227952584582532,-0.028320694385103932,0.7550713277354245,-0.7488134768699096
1.4573729526147516,7.05610914226359,-0.027850338132348305,0.7392194750379673,-0.7759580880353343
1.4510180587810833,6.887901506683889,-0.02740960824737635,0.7234556169594525,-0.8040009866739009
1.444761249035826,6.723309688200953,-0.026997433015729815,0.7077775872399903,-0.8328431267488978
1.4385960823953798,6.5623141838318055,-0.026612711683800996,0.6921833203178006,-0.862386278756425
1.4325163740318727,6.404895954260628,-0.026254317564087203,0.6766708498663616,-0.8925327872930054
1.4265162009230345,6.2510364011326125,-0.02592110077363552,0.6612383077685424,-0.9231853263787207
1.4205899069125398,6.100717344531997,-0.02561189062197133,0.6458839235411551,-0.954246651279785
1.4147321072599142,5.953921000538553,-0.02532549766173138,0.630606024227906,-0.9856193455151635
1.4089376927564194,5.810629958752216,-0.025060715412134872,0.6154030347837106,-1.0172055616606288
1.4032018334813605,5.670827159669521,-0.02481632176229007,0.6002734789788525,-1.0489067544796882
1.3975199822720143,5.534495871788327,-0.024591080058113036,0.5852159808576118,-1.0806234048132082
1.3918878779799029,5.40161966830852,-0.024383739873290525,0.5702292667928702,-1.1122547325473435
1.3863015485864354,5.2721824032859566,-0.024193037461208555,0.5553121681859544,-1.1436983968515742
1.3807573142520764,5.146168187084552,-0.024017695881045756,0.5404636248697502,-1.1748501817343269
1.3752517903752228,5.023561360956975,-0.02385642478724527,0.5256826892830727,-1.2056036648019812
1.369781890739953,4.904346470567429,-0.023707919867274416,0.5109685314956076,-1.23584986692745
1.3643448308358086,4.788508238250234,-0.02357086190789425,0.49632044517565693,-1.2654768803368117
1.3589381314379234,4.676031533775152,-0.023443915465020428,0.4817378546076738,-1.2943694724071493
1.3535596225421893,4.566901343363675,-0.023325727106581248,0.4672203228834181,-1.3224086622373319
1.3482074477579127,4.461102736669954,-0.02321492319147604,0.45276756140979907,-1.3494712668090574
1.3428800692697125,4.358620831404512,-0.023110107140699304,0.4383794408984014,-1.3754294133034226
1.3375762734914203,4.259440755238135,-0.02300985614879765,0.42405600402661864,-1.4001500138873688
1.332295177547693,4.16354760457639,-0.022912717274916866,0.4097974799885433,-1.4234941990482222
1.3270362367341793,4.070926399741374,-0.022817202842593635,0.39560430118551315,-1.44531670535396
1.3217992531246998,3.981562036035754,-0.022721785065923237,0.3814771223416035,-1.465465213382735
1.3165843855143708,3.895439230094116,-0.022624889806502235,0.3674168423682942,-1.4837796315432465
1.3113921609113475,3.8125424608471405,-0.022524889350223676,0.3534246293445485,-1.5000913216644938
1.306223487817438,3.7328559043349223,-0.022420094075077345,0.33950194902256836,-1.5142222626664348
1.30107967156992,3.6563633615062763,-0.022308742859860977,0.32565059731349005,-1.525984149472926
1.2959624320543537,3.583048178031735,-0.022188992058107714,0.31187273724773074,-1.535177425798913
1.2908739241422147,3.5128931550406435,-0.022058902830057944,0.29817094093568525,-1.541590251830082
1.285816761259385,3.4458804495703923,-0.021916426585852022,0.2845482370664907,-1.5449974115417635
1.2807940425542095,3.381991463394783,-0.02175938824175973,0.2710081644605471,-1.5451591700925444
1.2758093842103002,3.3212067187889573,-0.02158546692266934,0.25755483211186203,-1.5418201002720209
1.270866955544502,3.2635057197080855,-0.021392173649488835,0.24419298598268188,-1.534707909679889
1.2659715206520201,3.208866796833785,-0.021176825415571695,0.2309280824894922,-1.5235323190492311
1.2611284865204233,3.157266935020427,-0.02093651485918236,0.21776636806144772,-1.5079840696330427
1.256343958750714,3.108681581921733,-0.02066807444263908,0.20471496323155722,-1.4877341778045126
1.251624806326608,3.063084437101793,-0.0203680335930651,0.19178194824616682,-1.4624336136743652
1.2469787373106132,3.020447221893722,-0.020032566546021015,0.17897644486750122,-1.4317136657319838
1.2424143879954053,2.980739431902581,-0.01965742749926416,0.16630868549024208,-1.3951873766849194
1.237941429028883,2.9439280767084846,-0.019237867861798236,0.15379005532799395,-1.3524526123728862
1.2335706935699946,2.9099774155133105,-0.018768527432884766,0.1414330854996123,-1.3030975760114976
1.229314334962379,2.8788487038811077,-0.018243286546382218,0.1292513634760782,-1.2467099275012719
1.2251860252933844,2.850499976229031,-0.017655058401395998,0.11725931175938274,-1.1828911327571343
1.221201212444056,2.824885902298572,-0.01699548811450256,0.10547176589677949,-1.1112782511377668
1.2173774632832546,2.801957774134628,-0.016254504588119733,0.09390326161576523,-1.0315760062021044
1.2137349368009531,2.7816637024260764,-0.015419638736239935,0.08256692715425161,-0.9436024522455949
1.2102970567494775,2.7639491229581807,-0.014474970407027148,0.07147289430569553,-0.8473512743976834
1.2070914942921993,2.7487577223131225,-0.013399485743218403,0.06062624173828954,-0.7430715194256104
1.204151636770257,2.7360328566949477,-0.012164492708454742,0.05002476363714636,-0.631359172971134
1.2015188303591,2.7257194000003935,-0.010729476084213513,0.039657468489422566,-0.5132416812819688
1.1992459090821963,2.7177656165630175,-0.009035056758428098,0.02950586574864228,-0.39021536866789974
1.1974031246331924,2.712123929955805,-0.006989155841605908,0.019552278661888828,-0.26417376965025463
1.1960898477402095,2.7087477225081926,-0.00443064322781142,0.009806046969524009,-0.137161442712407
1.1954690113671944,2.7075731060605435,-0.0009679339288422794,0.00040800909699555826,-0.01095392498573386
